% Version 1.00
%
%freq[Hz],re:Trc13_S21,im:Trc13_S21,re:Trc14_S11,im:Trc14_S11,
1.000000000000000E+009,-1.353221575762556E-001,-9.885027154070184E-001,-7.927440717641357E-002,3.142832004023014E-003,
1.005000000000000E+009,-1.441911858181662E-001,-9.864326735740273E-001,-8.370795634167096E-002,7.634900123977001E-003,
1.010000000000000E+009,-1.519716086323362E-001,-9.842475814781309E-001,-8.747126024299670E-002,1.037510563677016E-002,
1.015000000000000E+009,-1.587925993403108E-001,-9.821390000360226E-001,-8.997088117675034E-002,1.623393381599893E-002,
1.020000000000000E+009,-1.657095053862147E-001,-9.813905745013513E-001,-9.264577823555160E-002,2.200635493969758E-002,
1.025000000000000E+009,-1.729816963418737E-001,-9.806437983986949E-001,-9.349566203754281E-002,2.891008911126958E-002,
1.030000000000000E+009,-1.802855519079956E-001,-9.804153306607625E-001,-9.336150183922060E-002,3.493151450158574E-002,
1.035000000000000E+009,-1.880367708102813E-001,-9.795594401515642E-001,-9.006871587343783E-002,3.896867416442837E-002,
1.040000000000000E+009,-1.958925334034582E-001,-9.794158162798592E-001,-8.814802690217449E-002,4.424827323528409E-002,
1.045000000000000E+009,-2.045420420279741E-001,-9.779844004530429E-001,-8.463051827442937E-002,4.755865267488472E-002,
1.050000000000000E+009,-2.124954048175881E-001,-9.767046215919606E-001,-7.923914330997046E-002,4.935159645551121E-002,
1.055000000000000E+009,-2.218238472004826E-001,-9.748169689851792E-001,-7.459693044881002E-002,4.811942099741395E-002,
1.060000000000000E+009,-2.307414867757041E-001,-9.727666898993526E-001,-7.008573855034606E-002,4.618812328884488E-002,
1.065000000000000E+009,-2.401107676320179E-001,-9.710559392396512E-001,-6.370948598994676E-002,4.364647920217613E-002,
1.070000000000000E+009,-2.491618083637215E-001,-9.686736575164006E-001,-6.004512184646242E-002,4.051868274760510E-002,
1.075000000000000E+009,-2.594861480839492E-001,-9.657740198812054E-001,-5.684397411827570E-002,3.532164209793259E-002,
1.080000000000000E+009,-2.686907855554135E-001,-9.632280635823618E-001,-5.452474604541526E-002,2.952925359396145E-002,
1.085000000000000E+009,-2.790647201504590E-001,-9.603053494524687E-001,-5.195878542496752E-002,2.366480875661773E-002,
1.090000000000000E+009,-2.888151453592572E-001,-9.575779249009885E-001,-5.230442555338952E-002,2.011030125236739E-002,
1.095000000000000E+009,-2.978451658432618E-001,-9.543550367854909E-001,-5.181359654377585E-002,1.539379666249894E-002,
1.100000000000000E+009,-3.074858778621014E-001,-9.508689036139484E-001,-5.408789665648813E-002,1.417778721323519E-002,
1.105000000000000E+009,-3.171211217063170E-001,-9.473215779209382E-001,-5.593163858069183E-002,1.051424041271637E-002,
1.110000000000000E+009,-3.262284362377745E-001,-9.434137290427013E-001,-5.964852956479896E-002,1.290295170199576E-002,
1.115000000000000E+009,-3.351416820008361E-001,-9.399042048958461E-001,-6.373464979240304E-002,1.107074528401328E-002,
1.120000000000000E+009,-3.442274359121763E-001,-9.359985458890747E-001,-6.679146373097343E-002,1.301546272959051E-002,
1.125000000000000E+009,-3.537881011533817E-001,-9.333702705685403E-001,-7.022716470735435E-002,1.734752700319193E-002,
1.130000000000000E+009,-3.636995109443353E-001,-9.293560668578835E-001,-7.506596940771573E-002,2.253843459470625E-002,
1.135000000000000E+009,-3.727857052656807E-001,-9.258819600411614E-001,-7.574124035990926E-002,2.917987106875905E-002,
1.140000000000000E+009,-3.822753117141969E-001,-9.224615688964024E-001,-7.520472909477907E-002,3.528840775391536E-002,
1.145000000000000E+009,-3.923933270279109E-001,-9.179971405382683E-001,-7.438084370216960E-002,4.289587449648732E-002,
1.150000000000000E+009,-4.020906908018759E-001,-9.139780230811697E-001,-7.165570034280258E-002,4.755014816128188E-002,
1.155000000000000E+009,-4.120490452650063E-001,-9.102138684547405E-001,-6.695791356974951E-002,5.184897290920618E-002,
1.160000000000000E+009,-4.224324536145392E-001,-9.054976306099978E-001,-6.374748239922459E-002,5.736656218242388E-002,
1.165000000000000E+009,-4.332605384272526E-001,-9.009944135350116E-001,-5.602409471679612E-002,5.942382002043241E-002,
1.170000000000000E+009,-4.436425348097517E-001,-8.958091873347347E-001,-4.976400075115831E-002,5.969012604028302E-002,
1.175000000000000E+009,-4.547389727956638E-001,-8.910892434936548E-001,-4.433343682222846E-002,5.880868541011446E-002,
1.180000000000000E+009,-4.658724912993921E-001,-8.845289462182268E-001,-3.398707044578853E-002,5.725806100831356E-002,
1.185000000000000E+009,-4.769662282643042E-001,-8.781090865390888E-001,-2.817326470188313E-002,5.365910219732797E-002,
1.190000000000000E+009,-4.886694859216306E-001,-8.715149718195852E-001,-2.108353505433236E-002,4.713488123356262E-002,
1.195000000000000E+009,-5.012213350894439E-001,-8.640151854326181E-001,-1.114075458810305E-002,4.091170699896804E-002,
1.200000000000000E+009,-5.143086152948104E-001,-8.554071556427475E-001,-2.133461208317626E-003,3.200236148170368E-002,
1.205000000000000E+009,-5.301402767105068E-001,-8.458372775702614E-001,7.737467732649948E-003,2.353420256591220E-002,
1.210000000000000E+009,-5.464816367815251E-001,-8.341614016982802E-001,1.737925813336376E-002,1.112580137954208E-002,
1.215000000000000E+009,-5.657145839469036E-001,-8.190876479586084E-001,2.947594503898833E-002,-2.449211821226195E-003,
1.220000000000000E+009,-5.875939163627791E-001,-7.999540256069514E-001,4.011103008794283E-002,-1.829200467374154E-002,
1.225000000000000E+009,-6.131085635283062E-001,-7.740327405121306E-001,5.903757587036483E-002,-4.132945137768293E-002,
1.230000000000000E+009,-6.439045000515771E-001,-7.348629485243899E-001,8.168833500977123E-002,-7.288557741838010E-002,
1.235000000000000E+009,-6.802366459988185E-001,-6.713049162545830E-001,1.105986219093238E-001,-1.312147407979837E-001,
1.240000000000000E+009,-7.090690835994952E-001,-5.482936567245286E-001,1.381825168547361E-001,-2.440440680321252E-001,
1.245000000000000E+009,-6.229575813066701E-001,-3.065220485200789E-001,6.610769400286068E-002,-4.802694709409410E-001,
1.250000000000000E+009,-1.600013614462895E-001,-2.751258706929186E-001,-3.879163338535474E-001,-5.539211361582528E-001,
1.255000000000000E+009,-7.204644962959877E-002,-6.716606575239021E-001,-5.290427046292550E-001,-1.723864040949772E-001,
1.260000000000000E+009,-2.083876924687321E-001,-8.179006773542148E-001,-4.232163075117147E-001,-4.346801496806699E-003,
1.265000000000000E+009,-3.042647373757205E-001,-8.530412976316373E-001,-3.434567291076975E-001,5.071969045256138E-002,
1.270000000000000E+009,-3.648371569260949E-001,-8.591734767978742E-001,-2.943328767847026E-001,7.414861407959777E-002,
1.275000000000000E+009,-4.072015196594868E-001,-8.572624580770585E-001,-2.602432173706887E-001,8.693132522346034E-002,
1.280000000000000E+009,-4.383436507484176E-001,-8.522767191353744E-001,-2.372949557372249E-001,9.639374012556497E-002,
1.285000000000000E+009,-4.619743320722515E-001,-8.464319510401384E-001,-2.170410431672046E-001,1.038198241941235E-001,
1.290000000000000E+009,-4.818555113073053E-001,-8.409374503911240E-001,-1.998907067030520E-001,1.094767181844506E-001,
1.295000000000000E+009,-4.986874372254023E-001,-8.346847084024358E-001,-1.868726554233387E-001,1.146253285131793E-001,
1.300000000000000E+009,-5.138054442859055E-001,-8.284838216396715E-001,-1.748141157316843E-001,1.159896220650963E-001,
1.305000000000000E+009,-5.267887833222384E-001,-8.226473863785180E-001,-1.626693262686788E-001,1.173168568354024E-001,
1.310000000000000E+009,-5.385288027697712E-001,-8.167794153665421E-001,-1.523205938160681E-001,1.170942805401119E-001,
1.315000000000000E+009,-5.490548266757499E-001,-8.109208137529493E-001,-1.422336598730611E-001,1.146088672143714E-001,
1.320000000000000E+009,-5.604146004736622E-001,-8.050127952371489E-001,-1.342538313287196E-001,1.114426681447811E-001,
1.325000000000000E+009,-5.707410178619786E-001,-7.995274398780152E-001,-1.264890145968671E-001,1.065977965447696E-001,
1.330000000000000E+009,-5.812759221208139E-001,-7.937784813652276E-001,-1.220413144337780E-001,1.025942585889816E-001,
1.335000000000000E+009,-5.906565392753826E-001,-7.872462966185813E-001,-1.170579939223116E-001,9.745790405474228E-002,
1.340000000000000E+009,-6.002896893733660E-001,-7.811077268786293E-001,-1.146085994715367E-001,9.228310202706815E-002,
1.345000000000000E+009,-6.094095121684032E-001,-7.750410880940535E-001,-1.121824197180040E-001,8.734205276505880E-002,
1.350000000000000E+009,-6.181886777037704E-001,-7.680906386083383E-001,-1.129810658487178E-001,8.156551024610681E-002,
1.355000000000000E+009,-6.266821439642623E-001,-7.614005788016790E-001,-1.126765107021335E-001,7.969275744448762E-002,
1.360000000000000E+009,-6.354965468670950E-001,-7.550486156882268E-001,-1.138948537154558E-001,7.617891193453431E-002,
1.365000000000000E+009,-6.435872973891608E-001,-7.478338543783538E-001,-1.147255580663148E-001,7.665869149258926E-002,
1.370000000000000E+009,-6.511104998840555E-001,-7.416888747115585E-001,-1.154189193357774E-001,7.742813599521052E-002,
1.375000000000000E+009,-6.589700437935174E-001,-7.347412173785333E-001,-1.177529269218458E-001,7.844812887966023E-002,
1.380000000000000E+009,-6.665545176275660E-001,-7.268593594319168E-001,-1.187171307314113E-001,8.210030941502872E-002,
1.385000000000000E+009,-6.733338165291180E-001,-7.193889655319470E-001,-1.221176241232776E-001,8.666840589196344E-002,
1.390000000000000E+009,-6.803368596724739E-001,-7.122694421521973E-001,-1.210244711605291E-001,9.225181147518050E-002,
1.395000000000000E+009,-6.871367845006191E-001,-7.042564483054478E-001,-1.215604265973695E-001,9.837467238411503E-002,
1.400000000000000E+009,-6.933388410057073E-001,-6.966036593241718E-001,-1.181064088052578E-001,1.034149606373051E-001,
1.405000000000000E+009,-6.997641501590863E-001,-6.904127519629122E-001,-1.156706893778955E-001,1.081159134131740E-001,
1.410000000000000E+009,-7.064635470189361E-001,-6.836104439816046E-001,-1.140869941269559E-001,1.130569250665562E-001,
1.415000000000000E+009,-7.127284973488146E-001,-6.768872794793582E-001,-1.118325252965844E-001,1.190697286745054E-001,
1.420000000000000E+009,-7.188608590620108E-001,-6.700792250052547E-001,-1.091862989795085E-001,1.218607146088532E-001,
1.425000000000000E+009,-7.247427056478577E-001,-6.635663156388987E-001,-1.054184856015714E-001,1.252052529508494E-001,
1.430000000000000E+009,-7.302516684721032E-001,-6.574520433027994E-001,-1.016422553776447E-001,1.291981526527778E-001,
1.435000000000000E+009,-7.360499967938645E-001,-6.511577562910751E-001,-9.696735908947991E-002,1.294374901033026E-001,
1.440000000000000E+009,-7.417302360913061E-001,-6.451353461232099E-001,-9.260648315156154E-002,1.295003186278670E-001,
1.445000000000000E+009,-7.474535803656774E-001,-6.389533083777436E-001,-8.934518990968984E-002,1.286694730105285E-001,
1.450000000000000E+009,-7.536438598101320E-001,-6.326970128961529E-001,-8.523452317591390E-002,1.252100131922956E-001,
1.455000000000000E+009,-7.592945239289544E-001,-6.264914523676067E-001,-8.272851462632912E-002,1.233313779727453E-001,
1.460000000000000E+009,-7.650997518580147E-001,-6.200986037123890E-001,-8.224659001912793E-002,1.179214073434645E-001,
1.465000000000000E+009,-7.707981474521422E-001,-6.132476224247022E-001,-7.909285802270175E-002,1.145331918582874E-001,
1.470000000000000E+009,-7.765294176021502E-001,-6.068100003988369E-001,-7.726455128137874E-002,1.093052189234435E-001,
1.475000000000000E+009,-7.819856581250595E-001,-5.996271553479590E-001,-7.761154804404870E-002,1.038216727930238E-001,
1.480000000000000E+009,-7.879155601635427E-001,-5.927125285716305E-001,-7.708916266213871E-002,9.970260075736558E-002,
1.485000000000000E+009,-7.934140458371591E-001,-5.849512312356404E-001,-7.949225441925026E-002,9.654232437598290E-002,
1.490000000000000E+009,-7.992202327763609E-001,-5.777416989833710E-001,-8.161622203880131E-002,9.316593490733371E-002,
1.495000000000000E+009,-8.042561237525688E-001,-5.704332360841926E-001,-8.297236748162681E-002,9.217551214362099E-002,
1.500000000000000E+009,-8.092038575505924E-001,-5.624606721422585E-001,-8.679405168988455E-002,9.403092684465376E-002,
1.505000000000000E+009,-8.146259285465567E-001,-5.548790732445152E-001,-8.814122719669235E-002,9.794540463509066E-002,
1.510000000000000E+009,-8.197612114854079E-001,-5.473573977825655E-001,-9.230350657119571E-002,9.982985333155899E-002,
1.515000000000000E+009,-8.243284605592973E-001,-5.399549127359162E-001,-9.132881618951748E-002,1.031390770713061E-001,
1.520000000000000E+009,-8.285660889009282E-001,-5.319896289931956E-001,-9.246307359694707E-002,1.090691083189719E-001,
1.525000000000000E+009,-8.328611407774385E-001,-5.241550034061844E-001,-9.042831502613545E-002,1.174704614553883E-001,
1.530000000000000E+009,-8.368596772776321E-001,-5.166280582691718E-001,-9.060698399346381E-002,1.218799572592679E-001,
1.535000000000000E+009,-8.404878995993903E-001,-5.096624943025185E-001,-8.724338993953378E-002,1.283636335123689E-001,
1.540000000000000E+009,-8.441626254534369E-001,-5.016328483653416E-001,-8.421085855378570E-002,1.314455279607129E-001,
1.545000000000000E+009,-8.477243917704627E-001,-4.950415955302926E-001,-7.906208530873218E-002,1.375127842148574E-001,
1.550000000000000E+009,-8.510620998030199E-001,-4.875514814130549E-001,-7.642809534731732E-002,1.406858536439005E-001,
1.555000000000000E+009,-8.551257908594997E-001,-4.805886076168125E-001,-6.980818687102493E-002,1.418809672763013E-001,
1.560000000000000E+009,-8.587328508321674E-001,-4.735643016473611E-001,-6.662375654747495E-002,1.433515202824662E-001,
1.565000000000000E+009,-8.623322123117535E-001,-4.664674738293471E-001,-6.516587766318198E-002,1.437408052357046E-001,
1.570000000000000E+009,-8.662364862030559E-001,-4.593430010090234E-001,-6.180975646806809E-002,1.404543012684803E-001,
1.575000000000000E+009,-8.697943173017553E-001,-4.516417318175142E-001,-5.981876545369541E-002,1.380653342699973E-001,
1.580000000000000E+009,-8.726209086665888E-001,-4.450536545795030E-001,-5.715932178403164E-002,1.354788764568842E-001,
1.585000000000000E+009,-8.764916623499800E-001,-4.380622432595324E-001,-5.869764734673189E-002,1.319512898377409E-001,
1.590000000000000E+009,-8.799543931878087E-001,-4.311327339801086E-001,-5.814611836436580E-002,1.290290735273403E-001,
1.595000000000000E+009,-8.841448224459665E-001,-4.234368029357515E-001,-5.726969035689081E-002,1.239955121093018E-001,
1.600000000000000E+009,-8.881799515396519E-001,-4.160686040028720E-001,-5.893671979948785E-002,1.225708680747911E-001,
1.605000000000000E+009,-8.911305316062889E-001,-4.081641443986931E-001,-5.897434513594059E-002,1.191183654923538E-001,
1.610000000000000E+009,-8.940047541386899E-001,-4.001663211275256E-001,-5.997845552842463E-002,1.178013901740855E-001,
1.615000000000000E+009,-8.969409615058206E-001,-3.919520981421480E-001,-6.107202213601572E-002,1.139923315214187E-001,
1.620000000000000E+009,-8.995906844939287E-001,-3.840628878978984E-001,-6.386772647985543E-002,1.122113958260431E-001,
1.625000000000000E+009,-9.022404405300880E-001,-3.765305900298501E-001,-6.307575583685009E-002,1.123150152763194E-001,
1.630000000000000E+009,-9.038488356706111E-001,-3.693315643748866E-001,-6.498706133779479E-002,1.117946363001948E-001,
1.635000000000000E+009,-9.073575115711514E-001,-3.609211959930200E-001,-6.773210185224621E-002,1.129610127835986E-001,
1.640000000000000E+009,-9.090550892546587E-001,-3.544360545152556E-001,-6.861767979703995E-002,1.169122495073713E-001,
1.645000000000000E+009,-9.121676675053130E-001,-3.467716148170061E-001,-6.741250237039094E-002,1.185133216700309E-001,
1.650000000000000E+009,-9.146602031066221E-001,-3.389941382710392E-001,-6.840188127776435E-002,1.239410573765978E-001,
1.655000000000000E+009,-9.166302377910593E-001,-3.311471276048845E-001,-6.796837630093133E-002,1.292790189768746E-001,
1.660000000000000E+009,-9.189874198608354E-001,-3.241470129388603E-001,-6.578460965027848E-002,1.354965319298788E-001,
1.665000000000000E+009,-9.217493984386943E-001,-3.166637625598134E-001,-6.410549080877714E-002,1.419394536900363E-001,
1.670000000000000E+009,-9.246189876013153E-001,-3.087406315961176E-001,-5.998899463592126E-002,1.489867054843677E-001,
1.675000000000000E+009,-9.287982087449865E-001,-3.013177147946694E-001,-5.525668675140806E-002,1.529643062721135E-001,
1.680000000000000E+009,-9.318870145716491E-001,-2.926452107945490E-001,-5.111881385348099E-002,1.552865127300278E-001,
1.685000000000000E+009,-9.348004721476890E-001,-2.843842322646203E-001,-4.759097458615526E-002,1.577527011390727E-001,
1.690000000000000E+009,-9.376177118625736E-001,-2.765460009909814E-001,-4.260608344921883E-002,1.592625781137494E-001,
1.695000000000000E+009,-9.402924348682258E-001,-2.688833367850960E-001,-3.768042943738711E-002,1.581227972017951E-001,
1.700000000000000E+009,-9.423305856910146E-001,-2.602630642667368E-001,-3.351657252429639E-002,1.568812215988860E-001,
1.705000000000000E+009,-9.446433735157735E-001,-2.524460402015175E-001,-3.234055767880061E-002,1.540151013494466E-001,
1.710000000000000E+009,-9.466509257335602E-001,-2.437590806498459E-001,-3.110504487491771E-002,1.515708645940153E-001,
1.715000000000000E+009,-9.482287089952288E-001,-2.353872648445787E-001,-2.937657233123103E-002,1.465152020248091E-001,
1.720000000000000E+009,-9.501560967134399E-001,-2.277945320336724E-001,-3.010828117705041E-002,1.408312907854995E-001,
1.725000000000000E+009,-9.520759293480654E-001,-2.192603344546824E-001,-3.126666863842714E-002,1.384713635536682E-001,
1.730000000000000E+009,-9.535082952044309E-001,-2.119787136221601E-001,-3.249042079923119E-002,1.334239337250503E-001,
1.735000000000000E+009,-9.543123053946816E-001,-2.038876769811613E-001,-3.473771761164195E-002,1.295794360367681E-001,
1.740000000000000E+009,-9.570384597145373E-001,-1.961976710694942E-001,-3.800157687320680E-002,1.263681903006703E-001,
1.745000000000000E+009,-9.588637841356253E-001,-1.881054911455686E-001,-4.026909254418667E-002,1.248968315413226E-001,
1.750000000000000E+009,-9.606124551539557E-001,-1.805538442155851E-001,-4.199274624950682E-002,1.221906007796477E-001,
1.755000000000000E+009,-9.630214636920006E-001,-1.717419383512496E-001,-4.585950177064797E-002,1.228522886099628E-001,
1.760000000000000E+009,-9.643468837182129E-001,-1.639175227323683E-001,-4.650479924118848E-002,1.243519076138951E-001,
1.765000000000000E+009,-9.657296483556309E-001,-1.549617346898754E-001,-4.800784475894889E-002,1.272965978288258E-001,
1.770000000000000E+009,-9.675437524312157E-001,-1.453188638087327E-001,-4.874631278163660E-002,1.311222520647177E-001,
1.775000000000000E+009,-9.683744200745401E-001,-1.376184858320563E-001,-4.703864297990723E-002,1.354744018312837E-001,
1.780000000000000E+009,-9.686465314770092E-001,-1.285874203634206E-001,-4.579419552779460E-002,1.385016771558790E-001,
1.785000000000000E+009,-9.693659963220969E-001,-1.199838468734233E-001,-4.351878698847124E-002,1.430459565477774E-001,
1.790000000000000E+009,-9.703683622198888E-001,-1.117317190232890E-001,-4.122127775213836E-002,1.499038014235918E-001,
1.795000000000000E+009,-9.710043847429040E-001,-1.036818253163059E-001,-3.527541684098770E-002,1.526299119069234E-001,
1.800000000000000E+009,-9.714851859084710E-001,-9.532428565972165E-002,-3.099793306497541E-002,1.579430829494996E-001,
1.805000000000000E+009,-9.722761964664135E-001,-8.716668631338993E-002,-2.649952827753275E-002,1.612992472293873E-001,
1.810000000000000E+009,-9.730614503317427E-001,-7.847474031269561E-002,-2.184622377712949E-002,1.639927230549598E-001,
1.815000000000000E+009,-9.738994003324968E-001,-7.040984295839073E-002,-1.666375372765354E-002,1.659729880403836E-001,
1.820000000000000E+009,-9.745144340719377E-001,-6.259124783056515E-002,-1.289705469366369E-002,1.674068569619615E-001,
