% Version 1.00
%
%freq[Hz],re:Trc13_S21,im:Trc13_S21,re:Trc14_S11,im:Trc14_S11,
1.000000000000000E+009,-1.484114868486035E-001,-9.853750781648829E-001,-9.061305006895479E-002,6.196404378971359E-003,
1.005000000000000E+009,-1.572890358913053E-001,-9.831433761376438E-001,-9.488906540407523E-002,1.091538582218450E-002,
1.010000000000000E+009,-1.651282734507163E-001,-9.807219976157383E-001,-9.851706562998498E-002,1.384048026957558E-002,
1.015000000000000E+009,-1.720344491940216E-001,-9.783958556493287E-001,-1.008158466141877E-001,1.981885987928300E-002,
1.020000000000000E+009,-1.789872412215758E-001,-9.774412145068739E-001,-1.033197956009713E-001,2.569148917073195E-002,
1.025000000000000E+009,-1.862603924917902E-001,-9.765999253405533E-001,-1.040203740003497E-001,3.268389015006083E-002,
1.030000000000000E+009,-1.934302847807854E-001,-9.761742935554382E-001,-1.037426213106433E-001,3.876440689741242E-002,
1.035000000000000E+009,-2.014146136304052E-001,-9.752007909419475E-001,-1.003547028947488E-001,4.281980078489237E-002,
1.040000000000000E+009,-2.093405391001851E-001,-9.750683932958246E-001,-9.828656567881301E-002,4.817951112484942E-002,
1.045000000000000E+009,-2.179627823517754E-001,-9.734692630833963E-001,-9.464329869955546E-002,5.150381125113184E-002,
1.050000000000000E+009,-2.261512874022407E-001,-9.721745074262559E-001,-8.918179621257910E-002,5.329270261217186E-002,
1.055000000000000E+009,-2.355787390877689E-001,-9.702152431480987E-001,-8.453547345010593E-002,5.203756900839129E-002,
1.060000000000000E+009,-2.446468428860682E-001,-9.680371620360775E-001,-8.002400040851765E-002,5.008683460736715E-002,
1.065000000000000E+009,-2.541625649657457E-001,-9.661853868508561E-001,-7.367680858553025E-002,4.747379026119139E-002,
1.070000000000000E+009,-2.634243018712387E-001,-9.636776988720353E-001,-7.001722024051510E-002,4.434078488917451E-002,
1.075000000000000E+009,-2.739506158282536E-001,-9.605949193796861E-001,-6.685644827226776E-002,3.914889754563329E-002,
1.080000000000000E+009,-2.834119592763217E-001,-9.578212728203389E-001,-6.459595368331317E-002,3.340503278745717E-002,
1.085000000000000E+009,-2.940434780279015E-001,-9.546794598850100E-001,-6.209339280646280E-002,2.756591763389162E-002,
1.090000000000000E+009,-3.040016269352617E-001,-9.516900116789522E-001,-6.235274957168555E-002,2.411075542343675E-002,
1.095000000000000E+009,-3.133055124001706E-001,-9.482049923434791E-001,-6.184141443628689E-002,1.945708349312224E-002,
1.100000000000000E+009,-3.231337486062734E-001,-9.443939222458220E-001,-6.393554408254364E-002,1.836663816238494E-002,
1.105000000000000E+009,-3.330648359937030E-001,-9.405924774636100E-001,-6.566574592672016E-002,1.481047666466899E-002,
1.110000000000000E+009,-3.424000489778574E-001,-9.364176543849500E-001,-6.903680115984266E-002,1.735546437926700E-002,
1.115000000000000E+009,-3.516576061259486E-001,-9.325674573451170E-001,-7.288222984663774E-002,1.572753460529165E-002,
1.120000000000000E+009,-3.610337299081224E-001,-9.283702160370718E-001,-7.551162417249265E-002,1.778682169503766E-002,
1.125000000000000E+009,-3.709409680122250E-001,-9.253176518054698E-001,-7.835880044930989E-002,2.223872723912558E-002,
1.130000000000000E+009,-3.813130499909617E-001,-9.209114579543780E-001,-8.251499485764735E-002,2.757098226698797E-002,
1.135000000000000E+009,-3.908233120816526E-001,-9.170827375875573E-001,-8.239232181868025E-002,3.416849191244207E-002,
1.140000000000000E+009,-4.008648784481678E-001,-9.130935928274104E-001,-8.097038458576375E-002,4.015092787758573E-002,
1.145000000000000E+009,-4.115336596390112E-001,-9.081548366765299E-001,-7.910620389035175E-002,4.757289689436897E-002,
1.150000000000000E+009,-4.220954240859377E-001,-9.034683414918068E-001,-7.529968124610538E-002,5.191873256294907E-002,
1.155000000000000E+009,-4.329984966647946E-001,-8.990649533110967E-001,-6.935231749938847E-002,5.575602663198447E-002,
1.160000000000000E+009,-4.446114369034429E-001,-8.934969673873913E-001,-6.457523312546400E-002,6.072518032898099E-002,
1.165000000000000E+009,-4.568720267592909E-001,-8.879906125085516E-001,-5.518286967147892E-002,6.184072734936805E-002,
1.170000000000000E+009,-4.689383526992985E-001,-8.814023219483982E-001,-4.699524033819807E-002,6.101111757741219E-002,
1.175000000000000E+009,-4.822646688273888E-001,-8.751117401823568E-001,-3.923127207486914E-002,5.876722404376103E-002,
1.180000000000000E+009,-4.961164195381159E-001,-8.664172927928227E-001,-2.600551499029244E-002,5.507044016053574E-002,
1.185000000000000E+009,-5.106809020347849E-001,-8.570039097484419E-001,-1.658340585602435E-002,4.895226651972236E-002,
1.190000000000000E+009,-5.268273115805774E-001,-8.463806943473602E-001,-5.043141511264476E-003,3.878517330878664E-002,
1.195000000000000E+009,-5.451979377991888E-001,-8.329019423182478E-001,1.087720020232742E-002,2.696011392631264E-002,
1.200000000000000E+009,-5.659269727194727E-001,-8.153421933299305E-001,2.777145124710243E-002,9.753833294677432E-003,
1.205000000000000E+009,-5.921898676587909E-001,-7.914741424158719E-001,4.878787138017578E-002,-1.211475791019724E-002,
1.210000000000000E+009,-6.225559369622515E-001,-7.555823662605186E-001,7.354367128829074E-002,-4.742988790634673E-002,
1.215000000000000E+009,-6.592340171772348E-001,-6.943227349346989E-001,1.057748911723928E-001,-1.054725739868659E-001,
1.220000000000000E+009,-6.911637728240199E-001,-5.777051199409968E-001,1.330238819414515E-001,-2.166770389924002E-001,
1.225000000000000E+009,-6.199524262627469E-001,-3.457517789091232E-001,6.866585203178396E-002,-4.504997545948492E-001,
1.230000000000000E+009,-1.796849553433524E-001,-2.850512925938565E-001,-3.680948582599314E-001,-5.370475258194257E-001,
1.235000000000000E+009,-6.782400969431607E-002,-6.722285906878204E-001,-5.159036589567687E-001,-1.658003658007679E-001,
1.240000000000000E+009,-1.996804051431128E-001,-8.231441541441935E-001,-4.109022584232082E-001,-3.127055645128293E-003,
1.245000000000000E+009,-2.953348813968367E-001,-8.587411372449896E-001,-3.333792384743068E-001,4.677737503634357E-002,
1.250000000000000E+009,-3.555695231286337E-001,-8.661006707752590E-001,-2.848323264598348E-001,6.573633475295994E-002,
1.255000000000000E+009,-3.981392027261584E-001,-8.623720170269674E-001,-2.570024305236910E-001,7.451681881145270E-002,
1.260000000000000E+009,-4.288849784145510E-001,-8.571783687447947E-001,-2.354868847055178E-001,8.233062225283276E-002,
1.265000000000000E+009,-4.525818422782734E-001,-8.509110298858544E-001,-2.209658505792893E-001,8.849369834139256E-002,
1.270000000000000E+009,-4.714424791710384E-001,-8.443877626392674E-001,-2.106760550454965E-001,9.489961818919616E-002,
1.275000000000000E+009,-4.883986029009184E-001,-8.382390534765146E-001,-2.005020996057513E-001,1.004185053622434E-001,
1.280000000000000E+009,-5.031315091490318E-001,-8.321125729324809E-001,-1.930320150847058E-001,1.069259078652829E-001,
1.285000000000000E+009,-5.154959059478436E-001,-8.261668805315515E-001,-1.834316674699818E-001,1.126462552473848E-001,
1.290000000000000E+009,-5.274302640434877E-001,-8.209636069067162E-001,-1.739617970901291E-001,1.174064263686585E-001,
1.295000000000000E+009,-5.382127620493805E-001,-8.151244517449696E-001,-1.666396121777647E-001,1.222361922483624E-001,
1.300000000000000E+009,-5.487419919033798E-001,-8.093965665954530E-001,-1.591833778353159E-001,1.234155879009608E-001,
1.305000000000000E+009,-5.581383968871934E-001,-8.040176657690543E-001,-1.505875379614187E-001,1.246122591889669E-001,
1.310000000000000E+009,-5.670017464907188E-001,-7.985442529783517E-001,-1.431695649073496E-001,1.243392913832199E-001,
1.315000000000000E+009,-5.753253691513216E-001,-7.930839566285149E-001,-1.356070339552229E-001,1.218746417089170E-001,
1.320000000000000E+009,-5.847862987808219E-001,-7.873913362561357E-001,-1.297678952317513E-001,1.188096360454687E-001,
1.325000000000000E+009,-5.935022223647621E-001,-7.821933630396519E-001,-1.238752285031075E-001,1.141067129866843E-001,
1.330000000000000E+009,-6.027288308176994E-001,-7.766207164989678E-001,-1.209786287129134E-001,1.104375703289086E-001,
1.335000000000000E+009,-6.110432669444907E-001,-7.702319454488873E-001,-1.173636357330899E-001,1.055675613252934E-001,
1.340000000000000E+009,-6.197062720208275E-001,-7.642273349952984E-001,-1.160994595533406E-001,1.007410211520610E-001,
1.345000000000000E+009,-6.279896290078253E-001,-7.582871097696768E-001,-1.146980109978730E-001,9.613775995044462E-002,
1.350000000000000E+009,-6.360007219660437E-001,-7.513435763206389E-001,-1.163998860015545E-001,9.083162532474404E-002,
1.355000000000000E+009,-6.439395706572370E-001,-7.447749395016207E-001,-1.167264550014831E-001,8.935223826700660E-002,
1.360000000000000E+009,-6.521101015900234E-001,-7.383698677944691E-001,-1.185505089833328E-001,8.626660616117272E-002,
1.365000000000000E+009,-6.597258357429838E-001,-7.312949364436285E-001,-1.197682748682764E-001,8.712634128892657E-002,
1.370000000000000E+009,-6.667163962650344E-001,-7.250403082099399E-001,-1.207427811917333E-001,8.823444845046000E-002,
1.375000000000000E+009,-6.740988004905728E-001,-7.180756804325374E-001,-1.233247288535224E-001,8.965766880385409E-002,
1.380000000000000E+009,-6.811565390720888E-001,-7.101504359615650E-001,-1.243725454935585E-001,9.361287687315990E-002,
1.385000000000000E+009,-6.874360017985639E-001,-7.026661515986451E-001,-1.277880980683485E-001,9.857988524875785E-002,
1.390000000000000E+009,-6.940033789131550E-001,-6.954690913557946E-001,-1.266608285757664E-001,1.043828586370946E-001,
1.395000000000000E+009,-7.002978395898075E-001,-6.874244220184959E-001,-1.270957896822615E-001,1.107523334094237E-001,
1.400000000000000E+009,-7.061295637604458E-001,-6.797768800373548E-001,-1.236057480669731E-001,1.158688720920878E-001,
1.405000000000000E+009,-7.122255160718599E-001,-6.736378895733017E-001,-1.211518281058833E-001,1.206834635027178E-001,
1.410000000000000E+009,-7.185495830483673E-001,-6.667151125203665E-001,-1.194824081544784E-001,1.257802439907355E-001,
1.415000000000000E+009,-7.244931164968558E-001,-6.600300545694926E-001,-1.170867419406176E-001,1.318934319881253E-001,
1.420000000000000E+009,-7.303164023574318E-001,-6.532620075512581E-001,-1.144733782751403E-001,1.347724128384062E-001,
1.425000000000000E+009,-7.359518652520874E-001,-6.466740641489899E-001,-1.106508373396359E-001,1.381562153404168E-001,
1.430000000000000E+009,-7.412013089328171E-001,-6.405651680188200E-001,-1.068238312230959E-001,1.421853223691759E-001,
1.435000000000000E+009,-7.467883988263072E-001,-6.341960721971829E-001,-1.022419566899693E-001,1.424261376102759E-001,
1.440000000000000E+009,-7.523412436244280E-001,-6.282107622597771E-001,-9.795691163414882E-002,1.425393092329889E-001,
1.445000000000000E+009,-7.579122775324881E-001,-6.219757741985239E-001,-9.480724830018684E-002,1.417813923518545E-001,
1.450000000000000E+009,-7.640225796302688E-001,-6.156992478075053E-001,-9.092351412649016E-002,1.383813102019457E-001,
1.455000000000000E+009,-7.694557150321533E-001,-6.093772239921532E-001,-8.853652060652946E-002,1.365969237939971E-001,
1.460000000000000E+009,-7.751751461010139E-001,-6.028475523987583E-001,-8.830542067553618E-002,1.314098936317128E-001,
1.465000000000000E+009,-7.806373866438765E-001,-5.959859717645634E-001,-8.535179416584671E-002,1.281088947514198E-001,
1.470000000000000E+009,-7.864351472538966E-001,-5.894107698981844E-001,-8.375802306107333E-002,1.230683522994619E-001,
1.475000000000000E+009,-7.917373229482754E-001,-5.820779960178536E-001,-8.431792089959007E-002,1.178522687643824E-001,
1.480000000000000E+009,-7.975356838246597E-001,-5.749800253112575E-001,-8.391723542738698E-002,1.139645450049241E-001,
1.485000000000000E+009,-8.027630916737366E-001,-5.671256849848655E-001,-8.638608242784152E-002,1.110958340627092E-001,
1.490000000000000E+009,-8.085413911779997E-001,-5.597741951988470E-001,-8.859012108289925E-002,1.080304469791286E-001,
1.495000000000000E+009,-8.133777783253340E-001,-5.522573415574392E-001,-8.994252693076424E-002,1.072766071179163E-001,
1.500000000000000E+009,-8.181183014610027E-001,-5.441868712258412E-001,-9.361544506023603E-002,1.094750388227765E-001,
1.505000000000000E+009,-8.232083871533649E-001,-5.365178045955062E-001,-9.472256877091995E-002,1.136159855560829E-001,
1.510000000000000E+009,-8.281004720040748E-001,-5.287682376944717E-001,-9.868899216513408E-002,1.158395453844668E-001,
1.515000000000000E+009,-8.325272060856646E-001,-5.212966315611809E-001,-9.752368353536133E-002,1.192787555770017E-001,
1.520000000000000E+009,-8.365449529117464E-001,-5.133254394181582E-001,-9.833866074681653E-002,1.253940663925213E-001,
1.525000000000000E+009,-8.403764414083836E-001,-5.054621329108991E-001,-9.587735101915078E-002,1.338276516963110E-001,
1.530000000000000E+009,-8.442288382566233E-001,-4.977908183894608E-001,-9.579838299567989E-002,1.383726959230015E-001,
1.535000000000000E+009,-8.475018523105760E-001,-4.908752386041508E-001,-9.212471404961087E-002,1.448239541547467E-001,
1.540000000000000E+009,-8.509596697007181E-001,-4.827984976245442E-001,-8.889019750933788E-002,1.479472021823433E-001,
1.545000000000000E+009,-8.542680272826694E-001,-4.761733436238764E-001,-8.346751911494271E-002,1.539196546426123E-001,
1.550000000000000E+009,-8.575486273071293E-001,-4.686385058799439E-001,-8.061832329986496E-002,1.571462476497723E-001,
1.555000000000000E+009,-8.614022873658096E-001,-4.616360808344509E-001,-7.391086124739235E-002,1.582265449600810E-001,
1.560000000000000E+009,-8.647956993721677E-001,-4.546817895221520E-001,-7.063484585440021E-002,1.597248188303101E-001,
1.565000000000000E+009,-8.683056450275809E-001,-4.474813376417983E-001,-6.907699197830527E-002,1.601892570371871E-001,
1.570000000000000E+009,-8.720639639039439E-001,-4.402577953114145E-001,-6.577703616855865E-002,1.569576808919981E-001,
1.575000000000000E+009,-8.755773845056248E-001,-4.325312999412982E-001,-6.380392966474661E-002,1.546242659654669E-001,
1.580000000000000E+009,-8.783684444530496E-001,-4.258810910713670E-001,-6.119034130000402E-002,1.520916417669255E-001,
1.585000000000000E+009,-8.821364864013639E-001,-4.186792945841127E-001,-6.274754972368246E-002,1.487673358055144E-001,
1.590000000000000E+009,-8.855579959462192E-001,-4.116054245542416E-001,-6.225135203777259E-002,1.459865776384068E-001,
1.595000000000000E+009,-8.895786134279952E-001,-4.038806609796707E-001,-6.153808422882127E-002,1.410936141649454E-001,
1.600000000000000E+009,-8.934610493556201E-001,-3.961877774193012E-001,-6.313720144380711E-002,1.399457768962684E-001,
1.605000000000000E+009,-8.963431740341876E-001,-3.882599900076559E-001,-6.323810592910002E-002,1.366698000587512E-001,
1.610000000000000E+009,-8.989653321807909E-001,-3.800335014178054E-001,-6.415388633158153E-002,1.355671392304886E-001,
1.615000000000000E+009,-9.017216327390907E-001,-3.717580152309930E-001,-6.529793092850429E-002,1.319875367899044E-001,
1.620000000000000E+009,-9.041475144038096E-001,-3.636739576913692E-001,-6.799332567656692E-002,1.304562906346073E-001,
1.625000000000000E+009,-9.066107287153187E-001,-3.561062243984321E-001,-6.708624110797562E-002,1.306647898329682E-001,
1.630000000000000E+009,-9.079909051931681E-001,-3.488561187318836E-001,-6.886655972929381E-002,1.303405873179614E-001,
1.635000000000000E+009,-9.113068024026408E-001,-3.403045860532120E-001,-7.140492641856878E-002,1.317546461190366E-001,
1.640000000000000E+009,-9.127498879940301E-001,-3.338039872605563E-001,-7.201341998609387E-002,1.358532811765653E-001,
1.645000000000000E+009,-9.157128384256509E-001,-3.261269817433098E-001,-7.061991089540382E-002,1.375269167146986E-001,
1.650000000000000E+009,-9.179491460723909E-001,-3.181995867297860E-001,-7.124033816386607E-002,1.430975047911388E-001,
1.655000000000000E+009,-9.196178941151031E-001,-3.104757303602413E-001,-7.047391347544191E-002,1.484674970282315E-001,
1.660000000000000E+009,-9.216958069276446E-001,-3.034926730497992E-001,-6.792997567230544E-002,1.546820717192787E-001,
1.665000000000000E+009,-9.242548982357500E-001,-2.960176053047279E-001,-6.587192370645181E-002,1.611437363057255E-001,
1.670000000000000E+009,-9.269017020575445E-001,-2.880205947265330E-001,-6.136915021404124E-002,1.681193709269439E-001,
1.675000000000000E+009,-9.308821534644256E-001,-2.805619669256624E-001,-5.636586847586127E-002,1.720355153662905E-001,
1.680000000000000E+009,-9.337664764482396E-001,-2.718633109565208E-001,-5.203771625529175E-002,1.743139447885347E-001,
1.685000000000000E+009,-9.364072126374795E-001,-2.635942374976861E-001,-4.830265586033337E-002,1.767229437538158E-001,
1.690000000000000E+009,-9.391272409494639E-001,-2.556976040350587E-001,-4.315775321514992E-002,1.781815707648231E-001,
1.695000000000000E+009,-9.415273624282552E-001,-2.480062451729832E-001,-3.821595133532128E-002,1.769524329447845E-001,
1.700000000000000E+009,-9.435343499736061E-001,-2.393400208997576E-001,-3.401586916124234E-002,1.757124692164028E-001,
1.705000000000000E+009,-9.456778883581277E-001,-2.314170759869033E-001,-3.281052252819647E-002,1.729744989215295E-001,
1.710000000000000E+009,-9.474543917565437E-001,-2.226759769323929E-001,-3.154661872204798E-002,1.706369460322177E-001,
1.715000000000000E+009,-9.489992698030130E-001,-2.142708094733869E-001,-2.991640156372169E-002,1.656977984443559E-001,
1.720000000000000E+009,-9.509057761013350E-001,-2.065804982209904E-001,-3.075746625613540E-002,1.602445602782033E-001,
1.725000000000000E+009,-9.525292135394468E-001,-1.979501837884216E-001,-3.183090681603008E-002,1.580508076726891E-001,
1.730000000000000E+009,-9.539890897074044E-001,-1.905330872025528E-001,-3.310818000423029E-002,1.532320256689385E-001,
1.735000000000000E+009,-9.547056130592354E-001,-1.823309804407750E-001,-3.533206320346973E-002,1.496301497330023E-001,
1.740000000000000E+009,-9.572327886383005E-001,-1.744822914608633E-001,-3.855451420533851E-002,1.467148147170339E-001,
1.745000000000000E+009,-9.589631298675119E-001,-1.663075374549303E-001,-4.070371263430601E-002,1.454551123339702E-001,
1.750000000000000E+009,-9.606438206446655E-001,-1.585690436706610E-001,-4.234917772693748E-002,1.429588184336798E-001,
1.755000000000000E+009,-9.628050179486729E-001,-1.496051427290471E-001,-4.595785199333218E-002,1.439190058567988E-001,
1.760000000000000E+009,-9.639181247209533E-001,-1.416639512337818E-001,-4.639705650984680E-002,1.455334615132585E-001,
1.765000000000000E+009,-9.650878894787826E-001,-1.326010493219640E-001,-4.757916201877219E-002,1.486677435313721E-001,
1.770000000000000E+009,-9.665024362592424E-001,-1.228730150463796E-001,-4.795297139493985E-002,1.526308442022425E-001,
1.775000000000000E+009,-9.670364026723805E-001,-1.151306018435885E-001,-4.586539663838685E-002,1.569983253305979E-001,
1.780000000000000E+009,-9.670666416378075E-001,-1.061098276656611E-001,-4.432645275546760E-002,1.600794136098111E-001,
1.785000000000000E+009,-9.673879898569558E-001,-9.740021597552824E-002,-4.164347574883815E-002,1.646046077881219E-001,
1.790000000000000E+009,-9.680326657402056E-001,-8.921482419049018E-002,-3.887207180931099E-002,1.714370609564626E-001,
1.795000000000000E+009,-9.685389332899512E-001,-8.124224150483216E-002,-3.267798154829433E-002,1.739874978397709E-001,
1.800000000000000E+009,-9.686421680467531E-001,-7.282511559041718E-002,-2.801538616290607E-002,1.792077408473274E-001,
1.805000000000000E+009,-9.692036235706246E-001,-6.480169177187597E-002,-2.324270166680998E-002,1.824408390177364E-001,
1.810000000000000E+009,-9.697610115501585E-001,-5.621943790483758E-002,-1.831866402411241E-002,1.850727434440000E-001,
1.815000000000000E+009,-9.703770612536377E-001,-4.809289890258987E-002,-1.287541407384655E-002,1.869152156027691E-001,
1.820000000000000E+009,-9.708877967259750E-001,-4.039413890990386E-002,-8.877320925030860E-003,1.882996795714729E-001,
