% Version 1.00
%
%freq[Hz],re:Trc13_S21,im:Trc13_S21,re:Trc14_S11,im:Trc14_S11,
1.000000000000000E+009,-1.509442472759400E-001,-9.854777878680584E-001,-9.035622293898869E-002,4.233927163184619E-003,
1.005000000000000E+009,-1.598206699216838E-001,-9.832648574437413E-001,-9.459819061335016E-002,8.935727069032003E-003,
1.010000000000000E+009,-1.677612259747122E-001,-9.808271791778210E-001,-9.818138892437504E-002,1.181322837483369E-002,
1.015000000000000E+009,-1.746712142858003E-001,-9.784882856078402E-001,-1.004760007372663E-001,1.770725918658811E-002,
1.020000000000000E+009,-1.816323845172320E-001,-9.773579787299144E-001,-1.030030678353937E-001,2.350822395236820E-002,
1.025000000000000E+009,-1.888032983580266E-001,-9.764112758200119E-001,-1.037611912393411E-001,3.041273095990679E-002,
1.030000000000000E+009,-1.960036726972939E-001,-9.760826710611622E-001,-1.035554710251888E-001,3.647891832614610E-002,
1.035000000000000E+009,-2.039042130724431E-001,-9.751133943442202E-001,-1.002101741814610E-001,4.047995585403567E-002,
1.040000000000000E+009,-2.118447411658410E-001,-9.748676517810887E-001,-9.820910233765817E-002,4.577614415194559E-002,
1.045000000000000E+009,-2.205587041226416E-001,-9.732562445772834E-001,-9.461626006673335E-002,4.909448703450793E-002,
1.050000000000000E+009,-2.286681853897757E-001,-9.719761336045334E-001,-8.921349436472091E-002,5.083717179572487E-002,
1.055000000000000E+009,-2.381615547645559E-001,-9.700345471504414E-001,-8.463189929816668E-002,4.955818584272492E-002,
1.060000000000000E+009,-2.472043687078208E-001,-9.678015602318913E-001,-8.019511387049211E-002,4.756142708118100E-002,
1.065000000000000E+009,-2.567313454936038E-001,-9.658945028745993E-001,-7.392579233222074E-002,4.490166479715895E-002,
1.070000000000000E+009,-2.660399672604653E-001,-9.633437850142007E-001,-7.035521171561279E-002,4.178320052083035E-002,
1.075000000000000E+009,-2.765855444285432E-001,-9.601529833652596E-001,-6.727817593120175E-002,3.658588462329505E-002,
1.080000000000000E+009,-2.860312227350118E-001,-9.573783149726564E-001,-6.509686318042190E-002,3.083304923364565E-002,
1.085000000000000E+009,-2.966679303701720E-001,-9.541702540121153E-001,-6.265124836135055E-002,2.498031866226674E-002,
1.090000000000000E+009,-3.066184270067091E-001,-9.511644324659569E-001,-6.300736581801691E-002,2.152650188372751E-002,
1.095000000000000E+009,-3.159208585754031E-001,-9.476340996487906E-001,-6.256457348378275E-002,1.687476990399239E-002,
1.100000000000000E+009,-3.258003549861755E-001,-9.438192027873514E-001,-6.471100663056861E-002,1.582383467113457E-002,
1.105000000000000E+009,-3.356553516301028E-001,-9.399850648439947E-001,-6.651910977843974E-002,1.228938429465277E-002,
1.110000000000000E+009,-3.449749718275132E-001,-9.357246691192573E-001,-6.992745435239738E-002,1.486539504438546E-002,
1.115000000000000E+009,-3.541633454146529E-001,-9.318257666300504E-001,-7.385621595343619E-002,1.327806063739384E-002,
1.120000000000000E+009,-3.634784784570182E-001,-9.276446064616014E-001,-7.652502593797741E-002,1.537818734859464E-002,
1.125000000000000E+009,-3.733935769767540E-001,-9.245771234927617E-001,-7.941813279293584E-002,1.987274382315029E-002,
1.130000000000000E+009,-3.836826003421504E-001,-9.201957278857701E-001,-8.361817894873749E-002,2.523871418657233E-002,
1.135000000000000E+009,-3.931350150335123E-001,-9.163487390993071E-001,-8.352053306683102E-002,3.187378267271035E-002,
1.140000000000000E+009,-4.031535867252968E-001,-9.123438947002205E-001,-8.215720676540282E-002,3.787241551162950E-002,
1.145000000000000E+009,-4.137856580325646E-001,-9.074227011155966E-001,-8.034403390402010E-002,4.530479674923420E-002,
1.150000000000000E+009,-4.243342856611041E-001,-9.028158220217467E-001,-7.661194040279758E-002,4.966160713296965E-002,
1.155000000000000E+009,-4.352113207193256E-001,-8.984425909763312E-001,-7.075466997524217E-002,5.347742051325796E-002,
1.160000000000000E+009,-4.467135870160099E-001,-8.928236509684958E-001,-6.611541738611178E-002,5.848010721977807E-002,
1.165000000000000E+009,-4.588573264686988E-001,-8.873074594485721E-001,-5.688294355277739E-002,5.962699788674888E-002,
1.170000000000000E+009,-4.708716274821915E-001,-8.808577796341240E-001,-4.887612307901090E-002,5.885400220037293E-002,
1.175000000000000E+009,-4.840494991688547E-001,-8.746046732001489E-001,-4.135453527476473E-002,5.669951194042686E-002,
1.180000000000000E+009,-4.976554803324159E-001,-8.659621965148772E-001,-2.839782819610316E-002,5.309755978332544E-002,
1.185000000000000E+009,-5.120123486780779E-001,-8.566810243893103E-001,-1.931814355553378E-002,4.719105062756029E-002,
1.190000000000000E+009,-5.279167908107516E-001,-8.462823422484788E-001,-8.185550179386578E-003,3.733309280995475E-002,
1.195000000000000E+009,-5.459368788464671E-001,-8.332691473115328E-001,7.239871064094291E-003,2.597193431852579E-002,
1.200000000000000E+009,-5.660701000070322E-001,-8.163278903582170E-001,2.345116544916225E-002,9.465264477843710E-003,
1.205000000000000E+009,-5.915579495472434E-001,-7.935964217398492E-001,4.354651990363021E-002,-1.113243179593834E-002,
1.210000000000000E+009,-6.210109769164605E-001,-7.599284863775986E-001,6.710784135525558E-002,-4.404695148439129E-002,
1.215000000000000E+009,-6.567977332644071E-001,-7.036554170861787E-001,9.819235313778497E-002,-9.692632677438366E-002,
1.220000000000000E+009,-6.913767993500531E-001,-5.985888400693720E-001,1.274232315297004E-001,-1.958516009862461E-001,
1.225000000000000E+009,-6.508646000176566E-001,-3.850611447573347E-001,9.316655516324360E-002,-4.088848750143466E-001,
1.230000000000000E+009,-2.529580202904775E-001,-2.456900640448854E-001,-2.952408313731139E-001,-5.703808158035877E-001,
1.235000000000000E+009,-5.680356810509585E-002,-6.291343174844484E-001,-5.255208679414498E-001,-2.109366980469643E-001,
1.240000000000000E+009,-1.864787630066689E-001,-8.114251311486807E-001,-4.261919499954284E-001,-1.821430646291263E-002,
1.245000000000000E+009,-2.886254503237271E-001,-8.549946599711786E-001,-3.434342942626122E-001,4.028676393573974E-002,
1.250000000000000E+009,-3.526793699333651E-001,-8.643935513746593E-001,-2.916450802502749E-001,6.181267243900968E-002,
1.255000000000000E+009,-3.971862433196546E-001,-8.612029287315218E-001,-2.620168969694880E-001,7.148575843790694E-002,
1.260000000000000E+009,-4.291202949004020E-001,-8.561600546654612E-001,-2.394659302139005E-001,7.966531971871649E-002,
1.265000000000000E+009,-4.535569241013678E-001,-8.498770895816118E-001,-2.243140793639910E-001,8.599605286465481E-002,
1.270000000000000E+009,-4.728720643119752E-001,-8.434003838476651E-001,-2.136024846984937E-001,9.249245524475780E-002,
1.275000000000000E+009,-4.901360854776473E-001,-8.371920547937913E-001,-2.031377791136739E-001,9.804048227263650E-002,
1.280000000000000E+009,-5.051391109541319E-001,-8.310153092047173E-001,-1.954850902584747E-001,1.045678157793633E-001,
1.285000000000000E+009,-5.177574082747557E-001,-8.249491788539184E-001,-1.857381864343591E-001,1.102802106012522E-001,
1.290000000000000E+009,-5.298113080199036E-001,-8.197370903456771E-001,-1.761961373964064E-001,1.150308754204234E-001,
1.295000000000000E+009,-5.406850788735292E-001,-8.138392320584351E-001,-1.687998857191134E-001,1.198379271358959E-001,
1.300000000000000E+009,-5.513167636914229E-001,-8.079894449096907E-001,-1.613157453514718E-001,1.210052662129659E-001,
1.305000000000000E+009,-5.607590376885203E-001,-8.025894907230339E-001,-1.527369682401601E-001,1.221531330143519E-001,
1.310000000000000E+009,-5.697496903286615E-001,-7.970916227047393E-001,-1.453340548441788E-001,1.218672833972284E-001,
1.315000000000000E+009,-5.781446712716976E-001,-7.914620351997017E-001,-1.378298099422568E-001,1.193547173025058E-001,
1.320000000000000E+009,-5.876280340542850E-001,-7.857730728082214E-001,-1.320520313551366E-001,1.162743894927461E-001,
1.325000000000000E+009,-5.963630109064431E-001,-7.804540751130437E-001,-1.262386220455089E-001,1.115840389000663E-001,
1.330000000000000E+009,-6.055965270524951E-001,-7.748144533373833E-001,-1.234162610693008E-001,1.079140358733587E-001,
1.335000000000000E+009,-6.139367938382224E-001,-7.683104912280888E-001,-1.198725112460349E-001,1.030806098568378E-001,
1.340000000000000E+009,-6.226878073006705E-001,-7.622812782279572E-001,-1.186933778963944E-001,9.831338180305119E-002,
1.345000000000000E+009,-6.308957652387127E-001,-7.562255473893483E-001,-1.173550271633159E-001,9.375135742373494E-002,
1.350000000000000E+009,-6.389066219801906E-001,-7.491953352100367E-001,-1.191223454797811E-001,8.852070873060237E-002,
1.355000000000000E+009,-6.468178460478155E-001,-7.426016538498296E-001,-1.194822019539668E-001,8.707608963722401E-002,
1.360000000000000E+009,-6.550066469128497E-001,-7.361627230689143E-001,-1.213633993455466E-001,8.407687282415424E-002,
1.365000000000000E+009,-6.625330462015386E-001,-7.289888183931932E-001,-1.225835703849922E-001,8.497808411315523E-002,
1.370000000000000E+009,-6.695469921829702E-001,-7.226732657086038E-001,-1.235872552104838E-001,8.613896320187846E-002,
1.375000000000000E+009,-6.768236887058727E-001,-7.156986164763847E-001,-1.261560797204795E-001,8.764905438541346E-002,
1.380000000000000E+009,-6.838366909018492E-001,-7.077226501429060E-001,-1.272022818660839E-001,9.165751482850151E-002,
1.385000000000000E+009,-6.901356938098019E-001,-7.002240994532161E-001,-1.306279921197720E-001,9.667754100403120E-002,
1.390000000000000E+009,-6.966717587160899E-001,-6.930338558651141E-001,-1.294927516267838E-001,1.024841270671305E-001,
1.395000000000000E+009,-7.029826397137204E-001,-6.850202497646073E-001,-1.299178425462139E-001,1.088947681744584E-001,
1.400000000000000E+009,-7.087109169670076E-001,-6.774155106692924E-001,-1.264408716921229E-001,1.139976639864873E-001,
1.405000000000000E+009,-7.149006868181657E-001,-6.711642283052290E-001,-1.239855679491149E-001,1.188466372626440E-001,
1.410000000000000E+009,-7.211753413485063E-001,-6.642382629172348E-001,-1.223250778578067E-001,1.239320691345741E-001,
1.415000000000000E+009,-7.270792002346447E-001,-6.575267384266144E-001,-1.199464384775501E-001,1.300323252641886E-001,
1.420000000000000E+009,-7.329757562625664E-001,-6.506492253884151E-001,-1.173690107639300E-001,1.329385502213284E-001,
1.425000000000000E+009,-7.385665447436269E-001,-6.440793572785108E-001,-1.136279613050740E-001,1.363129723242893E-001,
1.430000000000000E+009,-7.438025162165500E-001,-6.380350751591605E-001,-1.098418353668778E-001,1.403831091686708E-001,
1.435000000000000E+009,-7.494252887028936E-001,-6.315892443528995E-001,-1.053260341715459E-001,1.406342517907712E-001,
1.440000000000000E+009,-7.549773281257414E-001,-6.255911041648481E-001,-1.011066928928116E-001,1.407633476561925E-001,
1.445000000000000E+009,-7.605244749484852E-001,-6.192990416504243E-001,-9.802493169730478E-002,1.400102899841959E-001,
1.450000000000000E+009,-7.666320123264867E-001,-6.128573746349737E-001,-9.421666093998993E-002,1.366357706267153E-001,
1.455000000000000E+009,-7.721391759861908E-001,-6.065010155705182E-001,-9.190572898364179E-002,1.349218635585902E-001,
1.460000000000000E+009,-7.777399957143969E-001,-5.998209641425274E-001,-9.175394277341316E-002,1.298189361324088E-001,
1.465000000000000E+009,-7.832323282003463E-001,-5.929604622657204E-001,-8.887997403712293E-002,1.265628883878082E-001,
1.470000000000000E+009,-7.889437352667741E-001,-5.862876783980593E-001,-8.734177598260103E-002,1.215882920882798E-001,
1.475000000000000E+009,-7.941552632287012E-001,-5.788886668219799E-001,-8.795119800313872E-002,1.164426984279133E-001,
1.480000000000000E+009,-7.998768353020394E-001,-5.717657682838987E-001,-8.760926953904277E-002,1.126169132587272E-001,
1.485000000000000E+009,-8.052331605247244E-001,-5.639260789793477E-001,-9.012224087691176E-002,1.098647788477458E-001,
1.490000000000000E+009,-8.108884048026422E-001,-5.564669842033791E-001,-9.233006218120980E-002,1.068539953728090E-001,
1.495000000000000E+009,-8.156353593444616E-001,-5.490097124048179E-001,-9.370016226952535E-002,1.061585750051721E-001,
1.500000000000000E+009,-8.203980008982048E-001,-5.408829276436479E-001,-9.735910323705127E-002,1.084407950235257E-001,
1.505000000000000E+009,-8.254822281290700E-001,-5.331653722885336E-001,-9.845278283249842E-002,1.126295402398393E-001,
1.510000000000000E+009,-8.303175700114753E-001,-5.254338159795740E-001,-1.024490944597223E-001,1.149306870557699E-001,
1.515000000000000E+009,-8.347188836903491E-001,-5.179654206270048E-001,-1.012752797099886E-001,1.184140323523327E-001,
1.520000000000000E+009,-8.386907806704846E-001,-5.100076874083482E-001,-1.020572766225144E-001,1.245783811884466E-001,
1.525000000000000E+009,-8.426569131122756E-001,-5.021018049953793E-001,-9.957437800392713E-002,1.330450492357776E-001,
1.530000000000000E+009,-8.463759329798015E-001,-4.944320503599693E-001,-9.950159923008167E-002,1.376529622022781E-001,
1.535000000000000E+009,-8.496152252463780E-001,-4.875396468797512E-001,-9.580609068141116E-002,1.441326533512921E-001,
1.540000000000000E+009,-8.530814301623173E-001,-4.794674794636696E-001,-9.257133194827667E-002,1.472554146849400E-001,
1.545000000000000E+009,-8.564263963328433E-001,-4.728342899483584E-001,-8.715400757142086E-002,1.532396561825518E-001,
1.550000000000000E+009,-8.596480271425813E-001,-4.653673425029478E-001,-8.435186535942021E-002,1.564848023284702E-001,
1.555000000000000E+009,-8.635176150788748E-001,-4.582923355665405E-001,-7.767136852687237E-002,1.575662697682534E-001,
1.560000000000000E+009,-8.669868752403179E-001,-4.512999548257761E-001,-7.442086138452173E-002,1.591108018169005E-001,
1.565000000000000E+009,-8.704064628799284E-001,-4.439998329780301E-001,-7.289731504544317E-002,1.596102251600946E-001,
1.570000000000000E+009,-8.741754927169352E-001,-4.367396670314316E-001,-6.968823676814492E-002,1.563940666875895E-001,
1.575000000000000E+009,-8.777153671206255E-001,-4.288923248640282E-001,-6.778701276829029E-002,1.541413906274927E-001,
1.580000000000000E+009,-8.805064996939536E-001,-4.222439727917429E-001,-6.519534881040327E-002,1.516605666628691E-001,
1.585000000000000E+009,-8.842531580719044E-001,-4.149391110361732E-001,-6.683710611942244E-002,1.484125101169465E-001,
1.590000000000000E+009,-8.877048687692908E-001,-4.077997333649786E-001,-6.643928541473540E-002,1.456866723989306E-001,
1.595000000000000E+009,-8.917016989922393E-001,-3.999175321208405E-001,-6.575661985050940E-002,1.409398918891163E-001,
1.600000000000000E+009,-8.954998698777534E-001,-3.921903875795349E-001,-6.737884816972670E-002,1.398806066545373E-001,
1.605000000000000E+009,-8.983757826548279E-001,-3.841299401412105E-001,-6.749583923763561E-002,1.366676391499674E-001,
1.610000000000000E+009,-9.009381974274638E-001,-3.759057949884070E-001,-6.843361401680785E-002,1.356757082011420E-001,
1.615000000000000E+009,-9.035143884292598E-001,-3.675303604951957E-001,-6.955559910554687E-002,1.321794965490894E-001,
1.620000000000000E+009,-9.059244048259518E-001,-3.594523327227020E-001,-7.230167315141492E-002,1.307362246168504E-001,
1.625000000000000E+009,-9.083247196783413E-001,-3.518852653369842E-001,-7.134662146041161E-002,1.310435278483149E-001,
1.630000000000000E+009,-9.096245214837528E-001,-3.446229175019759E-001,-7.309880599574846E-002,1.307778540588796E-001,
1.635000000000000E+009,-9.128741534637284E-001,-3.360097865885177E-001,-7.560599923373956E-002,1.323039634588832E-001,
1.640000000000000E+009,-9.143473412470980E-001,-3.294898031058949E-001,-7.613915022529449E-002,1.364493728828846E-001,
1.645000000000000E+009,-9.172018885732584E-001,-3.218677851411588E-001,-7.470538014766591E-002,1.381604848089786E-001,
1.650000000000000E+009,-9.194330367913779E-001,-3.139647552546486E-001,-7.522923442296246E-002,1.437145140704670E-001,
1.655000000000000E+009,-9.209898470900890E-001,-3.061654911820337E-001,-7.445755608437754E-002,1.490907084598391E-001,
1.660000000000000E+009,-9.229907143276976E-001,-2.992009517880880E-001,-7.189046163629811E-002,1.552926088499833E-001,
1.665000000000000E+009,-9.255894902658849E-001,-2.916865770163293E-001,-6.980584803952422E-002,1.617769459618388E-001,
1.670000000000000E+009,-9.282215511055888E-001,-2.838013006928202E-001,-6.527487638719745E-002,1.687360723464013E-001,
1.675000000000000E+009,-9.321479861083953E-001,-2.762701710157195E-001,-6.032041905239156E-002,1.726494573456705E-001,
1.680000000000000E+009,-9.350198310413613E-001,-2.675981624448000E-001,-5.604060280812206E-002,1.749652696878118E-001,
1.685000000000000E+009,-9.376639816657999E-001,-2.592453149953327E-001,-5.233478126843014E-002,1.774152776107548E-001,
1.690000000000000E+009,-9.403032572952008E-001,-2.513758126760253E-001,-4.722373242381317E-002,1.789007513982270E-001,
1.695000000000000E+009,-9.427491629139445E-001,-2.436540606212530E-001,-4.230527032279872E-002,1.777126854414871E-001,
1.700000000000000E+009,-9.446396397348114E-001,-2.349489165479486E-001,-3.818921316022517E-002,1.765118364386622E-001,
1.705000000000000E+009,-9.467262139064234E-001,-2.269589587670238E-001,-3.704496195985740E-002,1.738406131867763E-001,
1.710000000000000E+009,-9.485052719113353E-001,-2.181628839353723E-001,-3.582831436913293E-002,1.715709892091431E-001,
1.715000000000000E+009,-9.499644084902971E-001,-2.096377787127937E-001,-3.423827483171058E-002,1.667065689158987E-001,
1.720000000000000E+009,-9.518143927331487E-001,-2.018730972579561E-001,-3.515883950391490E-002,1.613697353735957E-001,
1.725000000000000E+009,-9.533242540261616E-001,-1.932939951080873E-001,-3.624633439971816E-002,1.593006757624724E-001,
1.730000000000000E+009,-9.547026266471246E-001,-1.857895749255156E-001,-3.754380627720273E-002,1.545668978248045E-001,
1.735000000000000E+009,-9.553252870154020E-001,-1.776491175720151E-001,-3.979307013032785E-002,1.510863990351616E-001,
1.740000000000000E+009,-9.578159545912622E-001,-1.698029493734908E-001,-4.303191006489530E-002,1.482734288204656E-001,
1.745000000000000E+009,-9.595718633525655E-001,-1.616022507645714E-001,-4.517317179307005E-002,1.471273786763884E-001,
1.750000000000000E+009,-9.611717747378054E-001,-1.538439426617480E-001,-4.683979753091899E-002,1.447713892545480E-001,
1.755000000000000E+009,-9.632456158691827E-001,-1.448633354103365E-001,-5.039059983284296E-002,1.458378322531984E-001,
1.760000000000000E+009,-9.643696340917402E-001,-1.369029314038143E-001,-5.077190965657117E-002,1.475398719834906E-001,
1.765000000000000E+009,-9.654380678918944E-001,-1.278622358499301E-001,-5.189502698540256E-002,1.507598788135285E-001,
1.770000000000000E+009,-9.668119077375024E-001,-1.181489139633795E-001,-5.219326841736201E-002,1.548087455832204E-001,
1.775000000000000E+009,-9.672923849557065E-001,-1.104801790989944E-001,-5.004624760317554E-002,1.592216971741398E-001,
1.780000000000000E+009,-9.673125890223615E-001,-1.013946948479140E-001,-4.846468755651393E-002,1.623583412055379E-001,
1.785000000000000E+009,-9.676794390569026E-001,-9.268715356247999E-002,-4.573624181645136E-002,1.669277566436089E-001,
1.790000000000000E+009,-9.682180835775808E-001,-8.457834647561863E-002,-4.286711973940098E-002,1.737842276587199E-001,
1.795000000000000E+009,-9.686996145055833E-001,-7.662714262393781E-002,-3.665371926702585E-002,1.763419237353290E-001,
1.800000000000000E+009,-9.688050146137830E-001,-6.818954136465334E-002,-3.191378485598900E-002,1.815341591764774E-001,
1.805000000000000E+009,-9.693182564414286E-001,-6.015254399905412E-002,-2.713367699893678E-002,1.847902436813130E-001,
1.810000000000000E+009,-9.699122056860874E-001,-5.156143495885911E-002,-2.218788235595242E-002,1.874384977321949E-001,
1.815000000000000E+009,-9.704473901055971E-001,-4.340948447907055E-002,-1.675776978970048E-002,1.892925199893381E-001,
1.820000000000000E+009,-9.709314034946155E-001,-3.571699103285192E-002,-1.276943941713603E-002,1.907596204070563E-001,
