% Version 1.00
%
%freq[Hz],re:Trc13_S21,im:Trc13_S21,re:Trc14_S11,im:Trc14_S11,
1.000000000000000E+009,-1.604492069204670E-001,-9.826959284569061E-001,-9.974016182425145E-002,7.108500224272488E-003,
1.005000000000000E+009,-1.693964996884702E-001,-9.802887081953798E-001,-1.038583473420507E-001,1.197426335961798E-002,
1.010000000000000E+009,-1.773322597938527E-001,-9.776926347243362E-001,-1.073700762311668E-001,1.497885910290298E-002,
1.015000000000000E+009,-1.841327337832750E-001,-9.751642366297177E-001,-1.095671463948338E-001,2.092551573355548E-002,
1.020000000000000E+009,-1.910364339001585E-001,-9.739799098959898E-001,-1.120615569783226E-001,2.680032208595224E-002,
1.025000000000000E+009,-1.982420886553628E-001,-9.729345758941418E-001,-1.127528806701785E-001,3.379946169691619E-002,
1.030000000000000E+009,-2.053334228751534E-001,-9.724124831829181E-001,-1.125006719051514E-001,3.990682857687160E-002,
1.035000000000000E+009,-2.131805917690681E-001,-9.714287638993693E-001,-1.091930383320375E-001,4.395111451266248E-002,
1.040000000000000E+009,-2.210961043892051E-001,-9.711185777620517E-001,-1.071260081435246E-001,4.931803853247177E-002,
1.045000000000000E+009,-2.297057476927216E-001,-9.695119965016358E-001,-1.035472309168236E-001,5.267683939480305E-002,
1.050000000000000E+009,-2.378567752592719E-001,-9.681991634483615E-001,-9.816564355859909E-002,5.442322038429647E-002,
1.055000000000000E+009,-2.473962956912398E-001,-9.661133138690919E-001,-9.364570876688012E-002,5.318502605960757E-002,
1.060000000000000E+009,-2.565098846208772E-001,-9.638357268127151E-001,-8.929010867331197E-002,5.124825427300868E-002,
1.065000000000000E+009,-2.660804841699610E-001,-9.619256173027887E-001,-8.310896282330466E-002,4.859839107390377E-002,
1.070000000000000E+009,-2.753980864161185E-001,-9.592742655194185E-001,-7.959191497223199E-002,4.551722566953168E-002,
1.075000000000000E+009,-2.860519543155493E-001,-9.559730602888419E-001,-7.662730336519068E-002,4.037756879844506E-002,
1.080000000000000E+009,-2.956261188074686E-001,-9.531206618006668E-001,-7.460477325464651E-002,3.471223972397422E-002,
1.085000000000000E+009,-3.062931448231867E-001,-9.498082375023351E-001,-7.230004149324751E-002,2.893738235811764E-002,
1.090000000000000E+009,-3.162353559522201E-001,-9.466521635181480E-001,-7.273198888119049E-002,2.562979692743969E-002,
1.095000000000000E+009,-3.255665921645465E-001,-9.429737848423784E-001,-7.238791075325202E-002,2.108682189319546E-002,
1.100000000000000E+009,-3.354146054770577E-001,-9.390785295681664E-001,-7.455905823011741E-002,2.017859664209063E-002,
1.105000000000000E+009,-3.453402290940419E-001,-9.350066412621800E-001,-7.644346136387813E-002,1.683147142123730E-002,
1.110000000000000E+009,-3.545061402265053E-001,-9.307325497041246E-001,-7.978685850178910E-002,1.959246132375251E-002,
1.115000000000000E+009,-3.638090148138523E-001,-9.266677464924999E-001,-8.374496300523857E-002,1.820752352954932E-002,
1.120000000000000E+009,-3.730537527724486E-001,-9.223188650337321E-001,-8.637926517177207E-002,2.048788260558216E-002,
1.125000000000000E+009,-3.829089156529195E-001,-9.190716599239194E-001,-8.919161383825647E-002,2.514977002170287E-002,
1.130000000000000E+009,-3.930768324285208E-001,-9.145578622527266E-001,-9.327308141165777E-002,3.073485931534579E-002,
1.135000000000000E+009,-4.024228939057348E-001,-9.105706310192715E-001,-9.307742305334757E-002,3.750199789480393E-002,
1.140000000000000E+009,-4.123380275266573E-001,-9.064717545842966E-001,-9.161380827416953E-002,4.359638468596151E-002,
1.145000000000000E+009,-4.228511853748652E-001,-9.014488467986995E-001,-8.966128335108106E-002,5.116078596837932E-002,
1.150000000000000E+009,-4.332475277404647E-001,-8.967712910046413E-001,-8.587254833653135E-002,5.560965638658345E-002,
1.155000000000000E+009,-4.440796670103517E-001,-8.923444545761707E-001,-7.996186235231671E-002,5.949607416243936E-002,
1.160000000000000E+009,-4.554524454549216E-001,-8.866033453543295E-001,-7.521353245138733E-002,6.457670410118414E-002,
1.165000000000000E+009,-4.675642315324755E-001,-8.810861033646360E-001,-6.599280277407492E-002,6.574475998617864E-002,
1.170000000000000E+009,-4.794495063911755E-001,-8.745945376067421E-001,-5.802073897959725E-002,6.502715860099789E-002,
1.175000000000000E+009,-4.926052398672731E-001,-8.682593345904426E-001,-5.055102175978059E-002,6.294584232944143E-002,
1.180000000000000E+009,-5.061178386685693E-001,-8.596843649537905E-001,-3.770778913880573E-002,5.936097060364752E-002,
1.185000000000000E+009,-5.203853352807233E-001,-8.504301814460407E-001,-2.879210607772731E-002,5.358303191015549E-002,
1.190000000000000E+009,-5.361462663913006E-001,-8.400706602163955E-001,-1.793568555251639E-002,4.389324477956415E-002,
1.195000000000000E+009,-5.539488438598865E-001,-8.271972108792144E-001,-2.849156055301423E-003,3.272202344590957E-002,
1.200000000000000E+009,-5.739369161156578E-001,-8.105272946672839E-001,1.294928757885710E-002,1.661276016105217E-002,
1.205000000000000E+009,-5.990817761677858E-001,-7.883964281209902E-001,3.250608845666152E-002,-3.380068322334284E-003,
1.210000000000000E+009,-6.280137341279818E-001,-7.556947137519982E-001,5.527043690205157E-002,-3.511120509076993E-002,
1.215000000000000E+009,-6.634187481925646E-001,-7.018134417342875E-001,8.544195459241764E-002,-8.548896747674380E-002,
1.220000000000000E+009,-6.990143282542984E-001,-6.025576388693890E-001,1.149482945634821E-001,-1.782601778352889E-001,
1.225000000000000E+009,-6.727802372463019E-001,-4.000241569804353E-001,9.334015854921347E-002,-3.790434588874679E-001,
1.230000000000000E+009,-3.076133138861586E-001,-2.233833047014306E-001,-2.611672015758434E-001,-5.729409072104335E-001,
1.235000000000000E+009,-6.011366073372047E-002,-5.921141767790958E-001,-5.388744284887678E-001,-2.308156995339328E-001,
1.240000000000000E+009,-1.851197837318674E-001,-7.953972999423773E-001,-4.450967638843043E-001,-1.825400873020892E-002,
1.245000000000000E+009,-2.911842285878328E-001,-8.446463577005872E-001,-3.587500659525004E-001,4.620271892323621E-002,
1.250000000000000E+009,-3.575520592813543E-001,-8.554636638418194E-001,-3.046452069054140E-001,6.949770321547734E-002,
1.255000000000000E+009,-4.033338677908001E-001,-8.525447003328238E-001,-2.735904230902999E-001,7.991239847728107E-002,
1.260000000000000E+009,-4.358853934662360E-001,-8.475702724324215E-001,-2.501525421927822E-001,8.838647097343996E-002,
1.265000000000000E+009,-4.607262524569470E-001,-8.412282401255408E-001,-2.343684720943244E-001,9.490050592292829E-002,
1.270000000000000E+009,-4.802204519515958E-001,-8.347009061947576E-001,-2.231540523505338E-001,1.015533132491799E-001,
1.275000000000000E+009,-4.976405500395182E-001,-8.283888482050990E-001,-2.122933523733757E-001,1.071899150255097E-001,
1.280000000000000E+009,-5.126102850475034E-001,-8.220802108371028E-001,-2.042873080432208E-001,1.138038337395386E-001,
1.285000000000000E+009,-5.252301596367193E-001,-8.159941479237870E-001,-1.942692982243515E-001,1.194876390661596E-001,
1.290000000000000E+009,-5.372916547816232E-001,-8.106875467047775E-001,-1.845013381485160E-001,1.242217262791636E-001,
1.295000000000000E+009,-5.482201189956731E-001,-8.047722465716278E-001,-1.768961363521006E-001,1.290519020171004E-001,
1.300000000000000E+009,-5.588930933282612E-001,-7.988565431205391E-001,-1.692906673501877E-001,1.302080733653026E-001,
1.305000000000000E+009,-5.684176910865133E-001,-7.933130579074299E-001,-1.606306624143530E-001,1.313268560442276E-001,
1.310000000000000E+009,-5.773029388484855E-001,-7.877416762397520E-001,-1.532189463367741E-001,1.310362384877065E-001,
1.315000000000000E+009,-5.856947224154024E-001,-7.821078208389096E-001,-1.457168957613415E-001,1.285530067045606E-001,
1.320000000000000E+009,-5.951993830541789E-001,-7.762760872728379E-001,-1.399648880371044E-001,1.255269988084813E-001,
1.325000000000000E+009,-6.040630263455236E-001,-7.708294572691117E-001,-1.342146905273336E-001,1.208805872757509E-001,
1.330000000000000E+009,-6.132146735800146E-001,-7.650961770141744E-001,-1.314386100633823E-001,1.172930915570301E-001,
1.335000000000000E+009,-6.216368794583066E-001,-7.584498189304016E-001,-1.279400915575532E-001,1.125528286908928E-001,
1.340000000000000E+009,-6.303546400783362E-001,-7.523081286503169E-001,-1.268254726827681E-001,1.079026654939007E-001,
1.345000000000000E+009,-6.385962823228577E-001,-7.461026512130641E-001,-1.255422260786450E-001,1.034961367570808E-001,
1.350000000000000E+009,-6.465910061283074E-001,-7.389547074077173E-001,-1.273793143562439E-001,9.847738601118838E-002,
1.355000000000000E+009,-6.544365682135348E-001,-7.322369960368276E-001,-1.277022569989397E-001,9.721072718762645E-002,
1.360000000000000E+009,-6.625945209862357E-001,-7.255447377734703E-001,-1.295599900526262E-001,9.441467520928379E-002,
1.365000000000000E+009,-6.700161281822037E-001,-7.182458766421400E-001,-1.306635610981538E-001,9.548537505211263E-002,
1.370000000000000E+009,-6.769297678827645E-001,-7.118822925899768E-001,-1.315745960239224E-001,9.679290142815943E-002,
1.375000000000000E+009,-6.842364666083399E-001,-7.047099120079162E-001,-1.340480881992042E-001,9.847722724849230E-002,
1.380000000000000E+009,-6.910548138798698E-001,-6.965923625912674E-001,-1.349147810207035E-001,1.026315832358516E-001,
1.385000000000000E+009,-6.971600219200484E-001,-6.889410243475598E-001,-1.381088324025240E-001,1.078518864126013E-001,
1.390000000000000E+009,-7.035509565847986E-001,-6.816378169989111E-001,-1.367633641864881E-001,1.137320181693503E-001,
1.395000000000000E+009,-7.096132117024423E-001,-6.735362978722985E-001,-1.369613945989507E-001,1.202387200107182E-001,
1.400000000000000E+009,-7.152863100717241E-001,-6.658795129423387E-001,-1.333165304116314E-001,1.253854142112005E-001,
1.405000000000000E+009,-7.213472934937902E-001,-6.595515594289144E-001,-1.306833286078473E-001,1.302689136982498E-001,
1.410000000000000E+009,-7.274012589730046E-001,-6.525728048125669E-001,-1.288432857358944E-001,1.354020798786544E-001,
1.415000000000000E+009,-7.332012993181120E-001,-6.456992597378343E-001,-1.262594592637194E-001,1.415282793587266E-001,
1.420000000000000E+009,-7.389257575818840E-001,-6.388013624888043E-001,-1.235681240124243E-001,1.444553560864804E-001,
1.425000000000000E+009,-7.444809459079913E-001,-6.321970715112982E-001,-1.196931214459755E-001,1.478458365319964E-001,
1.430000000000000E+009,-7.495852390627302E-001,-6.261156399020901E-001,-1.157873482708646E-001,1.519189933202693E-001,
1.435000000000000E+009,-7.551588789123840E-001,-6.196552515494898E-001,-1.112164010399876E-001,1.521691103338516E-001,
1.440000000000000E+009,-7.607336528857107E-001,-6.136244394631548E-001,-1.069460576661152E-001,1.523186911425025E-001,
1.445000000000000E+009,-7.662001541943095E-001,-6.072392167831422E-001,-1.038537622791298E-001,1.516029927908750E-001,
1.450000000000000E+009,-7.723061727711547E-001,-6.007187183963754E-001,-1.000932769060088E-001,1.482825316612402E-001,
1.455000000000000E+009,-7.777601076230299E-001,-5.942306524364222E-001,-9.778037163960926E-002,1.466187449294739E-001,
1.460000000000000E+009,-7.833214334866485E-001,-5.874935085388641E-001,-9.772345463891756E-002,1.416833712792601E-001,
1.465000000000000E+009,-7.887359240020490E-001,-5.804916380983104E-001,-9.487767967302972E-002,1.385168695183793E-001,
1.470000000000000E+009,-7.945015702903066E-001,-5.737456068958137E-001,-9.340013257437640E-002,1.336794216362361E-001,
1.475000000000000E+009,-7.996518918435076E-001,-5.661649152060146E-001,-9.405945181261138E-002,1.286968590658574E-001,
1.480000000000000E+009,-8.053089646497473E-001,-5.589730683645734E-001,-9.371388710491142E-002,1.250366948221068E-001,
1.485000000000000E+009,-8.105371756990252E-001,-5.508979154551057E-001,-9.617565225788741E-002,1.225054123385238E-001,
1.490000000000000E+009,-8.160899401613226E-001,-5.433341406932484E-001,-9.834632275741423E-002,1.196731790499205E-001,
1.495000000000000E+009,-8.208125031532091E-001,-5.357439560280636E-001,-9.962944707981011E-002,1.191095866837463E-001,
1.500000000000000E+009,-8.253547001506888E-001,-5.275535438240363E-001,-1.031362488208067E-001,1.216024504462832E-001,
1.505000000000000E+009,-8.303458534254931E-001,-5.197654710729184E-001,-1.040154150660446E-001,1.259365339703538E-001,
1.510000000000000E+009,-8.350324477209854E-001,-5.118832855630859E-001,-1.078094769464370E-001,1.284773152595932E-001,
1.515000000000000E+009,-8.392352091725496E-001,-5.043956869667078E-001,-1.064570610935430E-001,1.320102876086687E-001,
1.520000000000000E+009,-8.430383790564322E-001,-4.963307256256422E-001,-1.069557064521523E-001,1.382779699044454E-001,
1.525000000000000E+009,-8.468090535629477E-001,-4.883949380590921E-001,-1.041344128393208E-001,1.467425296170146E-001,
1.530000000000000E+009,-8.503170148027579E-001,-4.806892398503178E-001,-1.038387373541956E-001,1.514182746514967E-001,
1.535000000000000E+009,-8.534941324258831E-001,-4.737559183828669E-001,-9.988820780151518E-002,1.578691840572042E-001,
1.540000000000000E+009,-8.567373904296134E-001,-4.657103297753511E-001,-9.648974087566270E-002,1.609859593549725E-001,
1.545000000000000E+009,-8.598562956174050E-001,-4.590096111492926E-001,-9.086156498209966E-002,1.668790298667968E-001,
1.550000000000000E+009,-8.629929995145346E-001,-4.514960780884105E-001,-8.785293576255884E-002,1.701674350030914E-001,
1.555000000000000E+009,-8.667765869591959E-001,-4.444849313124964E-001,-8.106125806351655E-002,1.711560548511905E-001,
1.560000000000000E+009,-8.701579758010114E-001,-4.373922531201433E-001,-7.767627935488655E-002,1.726648456197013E-001,
1.565000000000000E+009,-8.734725174509708E-001,-4.300786033766881E-001,-7.607217325407323E-002,1.732061013541414E-001,
1.570000000000000E+009,-8.772253204921987E-001,-4.227938553491169E-001,-7.289061446396121E-002,1.700250471011681E-001,
1.575000000000000E+009,-8.807125888503162E-001,-4.148735848828609E-001,-7.094026560232851E-002,1.677900596211935E-001,
1.580000000000000E+009,-8.835031557129387E-001,-4.081384615286269E-001,-6.835116320667820E-002,1.653296009108579E-001,
1.585000000000000E+009,-8.872173684003681E-001,-4.007057238528788E-001,-7.000628953870648E-002,1.622244905266637E-001,
1.590000000000000E+009,-8.906725514644631E-001,-3.934506586101709E-001,-6.956915491293871E-002,1.595970959477055E-001,
1.595000000000000E+009,-8.945809527966682E-001,-3.853829882058887E-001,-6.899441261777325E-002,1.548698646372911E-001,
1.600000000000000E+009,-8.981801356833268E-001,-3.774859133726936E-001,-7.060716199101555E-002,1.539784795968768E-001,
1.605000000000000E+009,-9.009652849377112E-001,-3.693573582187406E-001,-7.076703865337784E-002,1.509645885244978E-001,
1.610000000000000E+009,-9.033371171302824E-001,-3.609941381789894E-001,-7.160836173326092E-002,1.501662213381708E-001,
1.615000000000000E+009,-9.059131134536197E-001,-3.525969337913035E-001,-7.272943408176427E-002,1.468806926467666E-001,
1.620000000000000E+009,-9.081107073226089E-001,-3.442963870895781E-001,-7.530752661770609E-002,1.456914608972856E-001,
1.625000000000000E+009,-9.103569930638092E-001,-3.367135136239849E-001,-7.420409175129436E-002,1.460475050077383E-001,
1.630000000000000E+009,-9.115219114609686E-001,-3.294239636017184E-001,-7.580023069955888E-002,1.459522789780660E-001,
1.635000000000000E+009,-9.145184760966194E-001,-3.206889012943912E-001,-7.809091695619892E-002,1.475783009397250E-001,
1.640000000000000E+009,-9.157842871429864E-001,-3.141270062077576E-001,-7.841971388171488E-002,1.518056013860283E-001,
1.645000000000000E+009,-9.184545650281324E-001,-3.064017574291272E-001,-7.676622535730465E-002,1.535900463103269E-001,
1.650000000000000E+009,-9.204628797377913E-001,-2.985575871526532E-001,-7.697027405097295E-002,1.592053388001781E-001,
1.655000000000000E+009,-9.218384364051371E-001,-2.908191303572685E-001,-7.589440907121765E-002,1.645419571692970E-001,
1.660000000000000E+009,-9.237408986055590E-001,-2.838816800002591E-001,-7.306161094960940E-002,1.706906775386993E-001,
1.665000000000000E+009,-9.260950650096538E-001,-2.764441594583377E-001,-7.069083716866816E-002,1.771326056778823E-001,
1.670000000000000E+009,-9.286227367052605E-001,-2.684578652940636E-001,-6.589559018613822E-002,1.839393212891562E-001,
1.675000000000000E+009,-9.323973004161983E-001,-2.609782569845330E-001,-6.081110833604385E-002,1.877843365243208E-001,
1.680000000000000E+009,-9.350648326659463E-001,-2.522867469008224E-001,-5.639334515224515E-002,1.900927691109554E-001,
1.685000000000000E+009,-9.375116617967565E-001,-2.439139105542659E-001,-5.248088891442915E-002,1.925046362934370E-001,
1.690000000000000E+009,-9.401016408326666E-001,-2.360663653752543E-001,-4.725332656805828E-002,1.939313610553856E-001,
1.695000000000000E+009,-9.424018157075786E-001,-2.283073029976038E-001,-4.231442807058589E-002,1.926800966798243E-001,
1.700000000000000E+009,-9.442249379654067E-001,-2.196274089430991E-001,-3.814033473068507E-002,1.914310324356899E-001,
1.705000000000000E+009,-9.461975066565657E-001,-2.116040648771679E-001,-3.703272849951907E-002,1.888549847479447E-001,
1.710000000000000E+009,-9.478235080580081E-001,-2.027077828945863E-001,-3.573160265155258E-002,1.866887386722857E-001,
1.715000000000000E+009,-9.492857326134347E-001,-1.941711815478422E-001,-3.420600031944171E-002,1.819290450697885E-001,
1.720000000000000E+009,-9.510360819754258E-001,-1.862845182438297E-001,-3.511858587842224E-002,1.767532290628537E-001,
1.725000000000000E+009,-9.524484281767054E-001,-1.775955927017731E-001,-3.613444327789760E-002,1.748011701804223E-001,
1.730000000000000E+009,-9.536847754080970E-001,-1.700113425034976E-001,-3.741717647265389E-002,1.702574157549598E-001,
1.735000000000000E+009,-9.542450654502042E-001,-1.617246870473782E-001,-3.957617194790702E-002,1.669355641184055E-001,
1.740000000000000E+009,-9.565762883353055E-001,-1.538430123634575E-001,-4.274985469712672E-002,1.643426565217845E-001,
1.745000000000000E+009,-9.582202073929198E-001,-1.455957885040448E-001,-4.470309674640475E-002,1.633469281831018E-001,
1.750000000000000E+009,-9.596810254536998E-001,-1.377515551179601E-001,-4.627324467076047E-002,1.610881905162970E-001,
1.755000000000000E+009,-9.616259127777050E-001,-1.286799296513902E-001,-4.960154935249930E-002,1.623111172872707E-001,
1.760000000000000E+009,-9.624915324256150E-001,-1.207900990248998E-001,-4.978743748471382E-002,1.640632271827783E-001,
1.765000000000000E+009,-9.634475218653295E-001,-1.117219895823201E-001,-5.064954479353376E-002,1.673303835031995E-001,
1.770000000000000E+009,-9.645877620520279E-001,-1.019464636453644E-001,-5.068141996164697E-002,1.713994327292134E-001,
1.775000000000000E+009,-9.649180567778449E-001,-9.429524425354545E-002,-4.831097301176010E-002,1.758059751240665E-001,
1.780000000000000E+009,-9.646623024001870E-001,-8.510027895976939E-002,-4.648133573283991E-002,1.789556934995186E-001,
1.785000000000000E+009,-9.648663052292386E-001,-7.649568330014461E-002,-4.348795177737470E-002,1.834902023846302E-001,
1.790000000000000E+009,-9.651961306781279E-001,-6.844216996678455E-002,-4.029079016844418E-002,1.902689788529409E-001,
1.795000000000000E+009,-9.654227224634679E-001,-6.054112693674739E-002,-3.391263265383544E-002,1.926538729351561E-001,
1.800000000000000E+009,-9.653404423111062E-001,-5.223398218202996E-002,-2.892633097601360E-002,1.977707814212573E-001,
1.805000000000000E+009,-9.657170886119106E-001,-4.424476008423184E-002,-2.391228835448530E-002,2.009523272109454E-001,
1.810000000000000E+009,-9.661176164469433E-001,-3.572855613152166E-002,-1.877878949133850E-002,2.034962817923718E-001,
1.815000000000000E+009,-9.666123663894798E-001,-2.768059495726175E-002,-1.314153437547057E-002,2.052413560218256E-001,
1.820000000000000E+009,-9.669369583825006E-001,-1.989653387962800E-002,-8.993476200491310E-003,2.065641575311601E-001,
