% Version 1.00
%
%freq[Hz],re:Trc13_S21,im:Trc13_S21,re:Trc14_S11,im:Trc14_S11,
1.000000000000000E+009,-1.289815979006296E-001,-9.730454860005264E-001,-9.894493717820117E-002,2.894521034489602E-002,
1.005000000000000E+009,-1.380567085718558E-001,-9.716554713139444E-001,-9.805735710331072E-002,3.018012376872880E-002,
1.010000000000000E+009,-1.467094180556431E-001,-9.696988673524332E-001,-9.721562660443683E-002,2.994506526126962E-002,
1.015000000000000E+009,-1.553238645210623E-001,-9.675738648587307E-001,-9.688341917378865E-002,3.180491956612855E-002,
1.020000000000000E+009,-1.636613612803944E-001,-9.650442009659305E-001,-9.653476984969714E-002,3.298484820162370E-002,
1.025000000000000E+009,-1.714002916526518E-001,-9.624937678928467E-001,-9.433686655906298E-002,3.456257001255013E-002,
1.030000000000000E+009,-1.790167960369055E-001,-9.603600710539724E-001,-9.436090365891209E-002,3.674966379508889E-002,
1.035000000000000E+009,-1.867185013188657E-001,-9.584464813801467E-001,-9.281224643336046E-002,3.849654040911454E-002,
1.040000000000000E+009,-1.940781273408610E-001,-9.569901978372025E-001,-9.145022312458820E-002,3.975044388196725E-002,
1.045000000000000E+009,-2.017580118575599E-001,-9.558097710853409E-001,-8.993169867870485E-002,4.247519091490029E-002,
1.050000000000000E+009,-2.100834329846818E-001,-9.545058310610819E-001,-8.847640192035144E-002,4.533359003072679E-002,
1.055000000000000E+009,-2.188820657417243E-001,-9.532511647717276E-001,-8.516713203594255E-002,4.627906975950182E-002,
1.060000000000000E+009,-2.279489301034205E-001,-9.515537721424490E-001,-8.213266843215517E-002,4.811441526940095E-002,
1.065000000000000E+009,-2.373769165500654E-001,-9.500607919337918E-001,-7.968559716095172E-002,4.916147675894921E-002,
1.070000000000000E+009,-2.473294441351819E-001,-9.479541012051796E-001,-7.610395402867524E-002,4.897647936349931E-002,
1.075000000000000E+009,-2.571475122158234E-001,-9.455801116192215E-001,-7.345067094664445E-002,4.894978206895463E-002,
1.080000000000000E+009,-2.673375072323438E-001,-9.429343319268631E-001,-7.233940591798448E-002,4.769960357794992E-002,
1.085000000000000E+009,-2.777449921532837E-001,-9.400892859878761E-001,-6.965825019100604E-002,4.700656949136431E-002,
1.090000000000000E+009,-2.876187992499159E-001,-9.369528215686356E-001,-6.830088528144226E-002,4.550223004039079E-002,
1.095000000000000E+009,-2.977877027980457E-001,-9.337262779321278E-001,-6.716395925370836E-002,4.397634988734651E-002,
1.100000000000000E+009,-3.079093099183454E-001,-9.298631157639344E-001,-6.659492968736376E-002,4.242763507892151E-002,
1.105000000000000E+009,-3.182064902254151E-001,-9.264929112399551E-001,-6.577147939875185E-002,4.201572130780031E-002,
1.110000000000000E+009,-3.286157239729317E-001,-9.224343041974197E-001,-6.501879990037737E-002,4.119836909753182E-002,
1.115000000000000E+009,-3.392353821081495E-001,-9.180623936357339E-001,-6.389758775131808E-002,3.970109865062830E-002,
1.120000000000000E+009,-3.500538554916737E-001,-9.134806947566067E-001,-6.139870141249253E-002,4.056986501022492E-002,
1.125000000000000E+009,-3.615388099969527E-001,-9.092252700054397E-001,-5.945471640865510E-002,4.079507320915368E-002,
1.130000000000000E+009,-3.735363310858313E-001,-9.046309345671523E-001,-5.551696583371989E-002,4.179811970890870E-002,
1.135000000000000E+009,-3.864658122276875E-001,-8.991735805499318E-001,-4.924581872348344E-002,4.204184926466737E-002,
1.140000000000000E+009,-4.000234094108399E-001,-8.931528671196732E-001,-4.314996278344941E-002,4.174121809696313E-002,
1.145000000000000E+009,-4.151405533138655E-001,-8.860952195583486E-001,-3.402009351545197E-002,4.106194480714051E-002,
1.150000000000000E+009,-4.313601009904921E-001,-8.773432544771583E-001,-2.291674264391743E-002,3.795662827298096E-002,
1.155000000000000E+009,-4.502942456708491E-001,-8.671074952247988E-001,-8.635482814881364E-003,3.396948368160874E-002,
1.160000000000000E+009,-4.724592931719399E-001,-8.538219242847256E-001,9.359508761451514E-003,2.657594808230588E-002,
1.165000000000000E+009,-4.987786309727180E-001,-8.352435796094218E-001,3.155223234622094E-002,1.419171502591185E-002,
1.170000000000000E+009,-5.312744154310001E-001,-8.072655965612589E-001,6.176681384608140E-002,-7.835730916833098E-003,
1.175000000000000E+009,-5.716106594096352E-001,-7.607694646865726E-001,1.010241761995845E-001,-5.010895799207833E-002,
1.180000000000000E+009,-6.182832783235304E-001,-6.711105258912367E-001,1.493887051308207E-001,-1.355742136089344E-001,
1.185000000000000E+009,-6.240348213961194E-001,-4.754084076372078E-001,1.652125142113822E-001,-3.341240144188795E-001,
1.190000000000000E+009,-3.093595923091553E-001,-2.343495608479935E-001,-1.459071670689328E-001,-6.056657854585328E-001,
1.195000000000000E+009,2.344854751620819E-002,-5.515210958791481E-001,-5.218397294723536E-001,-3.024525545416596E-001,
1.200000000000000E+009,-6.883123553691255E-002,-7.904752058320692E-001,-4.530654263930488E-001,-4.409871927568520E-002,
1.205000000000000E+009,-1.718003546424460E-001,-8.612659702618214E-001,-3.601970421241719E-001,4.061664751971497E-002,
1.210000000000000E+009,-2.403025151310657E-001,-8.822414674112233E-001,-2.988550372011427E-001,7.171810508484589E-002,
1.215000000000000E+009,-2.875692761450018E-001,-8.876539609912345E-001,-2.591439156403199E-001,8.479713959506458E-002,
1.220000000000000E+009,-3.224907026099610E-001,-8.870832509297159E-001,-2.309239549304215E-001,8.992907973516819E-002,
1.225000000000000E+009,-3.498504748123744E-001,-8.841120683851858E-001,-2.112926835408445E-001,9.205552194920733E-002,
1.230000000000000E+009,-3.725466945134601E-001,-8.795336171652676E-001,-1.974149371235834E-001,9.398224941883351E-002,
1.235000000000000E+009,-3.917037218963051E-001,-8.746508672812696E-001,-1.853017649685620E-001,9.507637822138294E-002,
1.240000000000000E+009,-4.086679400052071E-001,-8.691607644076723E-001,-1.776134172330295E-001,9.482859888533879E-002,
1.245000000000000E+009,-4.239435668255910E-001,-8.641672349404140E-001,-1.691456885734839E-001,9.454321308385440E-002,
1.250000000000000E+009,-4.375464569984455E-001,-8.585651709215493E-001,-1.636414764901511E-001,9.532899415546985E-002,
1.255000000000000E+009,-4.501647219133131E-001,-8.533621737540408E-001,-1.595833117571695E-001,9.581570782238802E-002,
1.260000000000000E+009,-4.620183390370857E-001,-8.481669436850161E-001,-1.543859061195832E-001,9.613286124591830E-002,
1.265000000000000E+009,-4.727708020900997E-001,-8.426342305081277E-001,-1.514936585778919E-001,9.779903798221622E-002,
1.270000000000000E+009,-4.826262884857631E-001,-8.376953072317532E-001,-1.478395116523517E-001,9.975791445095827E-002,
1.275000000000000E+009,-4.921472140416469E-001,-8.324095858164200E-001,-1.437664735777045E-001,1.005954916379900E-001,
1.280000000000000E+009,-5.011362195373134E-001,-8.275212448349246E-001,-1.392995272319645E-001,1.032528506053557E-001,
1.285000000000000E+009,-5.096699228010438E-001,-8.227020934398086E-001,-1.351165615508378E-001,1.050496726858307E-001,
1.290000000000000E+009,-5.182847902068849E-001,-8.174793311966446E-001,-1.307914295898102E-001,1.070853772428617E-001,
1.295000000000000E+009,-5.265961914588148E-001,-8.122547124895266E-001,-1.267159112814771E-001,1.073345227263780E-001,
1.300000000000000E+009,-5.340078617819508E-001,-8.070420185950928E-001,-1.226717729385221E-001,1.096083768111460E-001,
1.305000000000000E+009,-5.415912635450295E-001,-8.019138755706106E-001,-1.177100720957857E-001,1.106306967417429E-001,
1.310000000000000E+009,-5.488719579644606E-001,-7.969238789726418E-001,-1.139914839756604E-001,1.115575748297774E-001,
1.315000000000000E+009,-5.561497106019899E-001,-7.921907386731912E-001,-1.098535491711487E-001,1.117933506065200E-001,
1.320000000000000E+009,-5.636519102833020E-001,-7.874338336119435E-001,-1.058488876967270E-001,1.120635512056307E-001,
1.325000000000000E+009,-5.711791995675429E-001,-7.826043231991786E-001,-1.029564238903852E-001,1.113875082853420E-001,
1.330000000000000E+009,-5.789754126676308E-001,-7.775726312572182E-001,-9.987366200892217E-002,1.115263567482735E-001,
1.335000000000000E+009,-5.860540351600099E-001,-7.722918049374868E-001,-9.845705325730808E-002,1.110352854269330E-001,
1.340000000000000E+009,-5.932914077631679E-001,-7.670768117638966E-001,-9.709917491358983E-002,1.104929539687246E-001,
1.345000000000000E+009,-6.002081943659120E-001,-7.617762369218752E-001,-9.579981911949038E-002,1.095323398041112E-001,
1.350000000000000E+009,-6.071897406714125E-001,-7.563546907103116E-001,-9.550731662982807E-002,1.089725774006823E-001,
1.355000000000000E+009,-6.141057104314356E-001,-7.510707744415358E-001,-9.432087484359378E-002,1.088724428190812E-001,
1.360000000000000E+009,-6.212806495768996E-001,-7.458132282679078E-001,-9.538319690634403E-002,1.080246809609616E-001,
1.365000000000000E+009,-6.282963935945999E-001,-7.403125551650660E-001,-9.504383158915500E-002,1.086090391590390E-001,
1.370000000000000E+009,-6.355142468547133E-001,-7.346636144025893E-001,-9.431097891170795E-002,1.099313011558576E-001,
1.375000000000000E+009,-6.423191905768312E-001,-7.287681270821242E-001,-9.373841926686891E-002,1.094245472151596E-001,
1.380000000000000E+009,-6.493510193449270E-001,-7.227049273246352E-001,-9.310129495417574E-002,1.109237524722753E-001,
1.385000000000000E+009,-6.560582151364042E-001,-7.159443746757133E-001,-9.230443745276554E-002,1.119086717990671E-001,
1.390000000000000E+009,-6.626106068857303E-001,-7.094248745527151E-001,-9.126896994449617E-002,1.124911206876529E-001,
1.395000000000000E+009,-6.692141316576491E-001,-7.029793194557301E-001,-8.937787073568454E-002,1.134325760994670E-001,
1.400000000000000E+009,-6.756695792080191E-001,-6.964858361582935E-001,-8.701515542066347E-002,1.144044026435977E-001,
1.405000000000000E+009,-6.822794984196937E-001,-6.897038934553323E-001,-8.539493791744188E-002,1.150625170333948E-001,
1.410000000000000E+009,-6.888434382145681E-001,-6.831498414881910E-001,-8.334000962617924E-002,1.158627084736004E-001,
1.415000000000000E+009,-6.952406543738514E-001,-6.766991623485719E-001,-8.174342400484498E-002,1.166173282882276E-001,
1.420000000000000E+009,-7.013387607715200E-001,-6.701637557965565E-001,-7.913336887371875E-002,1.180893470821259E-001,
1.425000000000000E+009,-7.076810721504456E-001,-6.635509719755679E-001,-7.703184185794068E-002,1.182125581351660E-001,
1.430000000000000E+009,-7.133540891847098E-001,-6.571694047700415E-001,-7.423668354111848E-002,1.189579258621882E-001,
1.435000000000000E+009,-7.188800243650234E-001,-6.502761262659096E-001,-7.254877702694568E-002,1.203390645929158E-001,
1.440000000000000E+009,-7.246753559643885E-001,-6.442614871169179E-001,-6.948727728443072E-002,1.216227724406429E-001,
1.445000000000000E+009,-7.304131291015981E-001,-6.379489946030494E-001,-6.673189770382981E-002,1.222933235593587E-001,
1.450000000000000E+009,-7.362957149226991E-001,-6.315285521189039E-001,-6.419634932283129E-002,1.230133475305344E-001,
1.455000000000000E+009,-7.420787707811842E-001,-6.252071299069117E-001,-6.141753798368105E-002,1.231704150488675E-001,
1.460000000000000E+009,-7.475456064242153E-001,-6.187550859200527E-001,-5.954267483774027E-002,1.217042939223087E-001,
1.465000000000000E+009,-7.524803065429984E-001,-6.124597562988527E-001,-5.728027033940172E-002,1.222582087739077E-001,
1.470000000000000E+009,-7.576934730982499E-001,-6.060849583440883E-001,-5.622936143772066E-002,1.214847146071035E-001,
1.475000000000000E+009,-7.629882069892092E-001,-5.994842134742628E-001,-5.518746915076227E-002,1.207876846383492E-001,
1.480000000000000E+009,-7.684208903216360E-001,-5.929773000422034E-001,-5.436201917703042E-002,1.192089330392894E-001,
1.485000000000000E+009,-7.735991096830667E-001,-5.858441658048501E-001,-5.425132799276857E-002,1.183163736279497E-001,
1.490000000000000E+009,-7.789456075104518E-001,-5.792151360250673E-001,-5.436437792998682E-002,1.170263364605265E-001,
1.495000000000000E+009,-7.839353950400686E-001,-5.723065172177809E-001,-5.543021490856272E-002,1.170201182149231E-001,
1.500000000000000E+009,-7.890422813216800E-001,-5.655123318168311E-001,-5.541377759269167E-002,1.164246955004956E-001,
1.505000000000000E+009,-7.941692782988381E-001,-5.587334727008485E-001,-5.520501036068025E-002,1.165589643997910E-001,
1.510000000000000E+009,-7.993016468984049E-001,-5.518600601328957E-001,-5.534848016897242E-002,1.173106203741109E-001,
1.515000000000000E+009,-8.040220048250648E-001,-5.448913284461513E-001,-5.545411007518975E-002,1.189267647932582E-001,
1.520000000000000E+009,-8.089497872486477E-001,-5.378228042640297E-001,-5.445566216725618E-002,1.194415855271566E-001,
1.525000000000000E+009,-8.134739960288991E-001,-5.310160272921437E-001,-5.255470741560732E-002,1.202614780687615E-001,
1.530000000000000E+009,-8.176885636574111E-001,-5.237980137716835E-001,-5.189433236714029E-002,1.213211615646798E-001,
1.535000000000000E+009,-8.218310155724649E-001,-5.168867211731678E-001,-4.947391670353387E-002,1.216921528110271E-001,
1.540000000000000E+009,-8.256205804916652E-001,-5.098152853041664E-001,-4.670063941485978E-002,1.228998990446454E-001,
1.545000000000000E+009,-8.294802319845243E-001,-5.025330382499854E-001,-4.507297015203782E-002,1.223247776785805E-001,
1.550000000000000E+009,-8.333274738099028E-001,-4.954901351276235E-001,-4.218491114275017E-002,1.235833893398734E-001,
1.555000000000000E+009,-8.371117094419192E-001,-4.885691336645997E-001,-3.998068475015718E-002,1.233565388162499E-001,
1.560000000000000E+009,-8.412393334179752E-001,-4.813729021047126E-001,-3.622304094764550E-002,1.230043272998752E-001,
1.565000000000000E+009,-8.445745555844496E-001,-4.739456221590907E-001,-3.434462438001337E-002,1.237285033902335E-001,
1.570000000000000E+009,-8.481113464065968E-001,-4.666865593215974E-001,-3.219693354045930E-002,1.234258254118065E-001,
1.575000000000000E+009,-8.516630300768985E-001,-4.592092792093677E-001,-3.055718766644776E-002,1.235833223052080E-001,
1.580000000000000E+009,-8.548650868914798E-001,-4.520495292976430E-001,-3.023861303206876E-002,1.231237265071607E-001,
1.585000000000000E+009,-8.582392774028127E-001,-4.452439397911763E-001,-2.755886216355828E-002,1.237990133536660E-001,
1.590000000000000E+009,-8.616406310191787E-001,-4.383824059162038E-001,-2.638640322411767E-002,1.235147439965688E-001,
1.595000000000000E+009,-8.651289737585561E-001,-4.315334610789002E-001,-2.549748076976445E-002,1.237852789661585E-001,
1.600000000000000E+009,-8.686957971531888E-001,-4.249860397002229E-001,-2.438798860933880E-002,1.230800100594603E-001,
1.605000000000000E+009,-8.721567474941251E-001,-4.179652447205208E-001,-2.267738729302601E-002,1.241750550398964E-001,
1.610000000000000E+009,-8.759014352790200E-001,-4.106638756357985E-001,-2.202317645990754E-002,1.228608884195218E-001,
1.615000000000000E+009,-8.791464481555973E-001,-4.036014404327156E-001,-2.010625706301022E-002,1.230295492316001E-001,
1.620000000000000E+009,-8.823206918881972E-001,-3.963817933017433E-001,-1.937366748733998E-002,1.220890936000480E-001,
1.625000000000000E+009,-8.854189581864675E-001,-3.892082158942457E-001,-1.909985888568173E-002,1.202300553682942E-001,
1.630000000000000E+009,-8.884918253314333E-001,-3.815176989337379E-001,-1.890681841033532E-002,1.190750798485965E-001,
1.635000000000000E+009,-8.915337445296231E-001,-3.747599198679535E-001,-1.815778921396027E-002,1.183448897761129E-001,
1.640000000000000E+009,-8.946516115121914E-001,-3.673402708175690E-001,-1.908722400272873E-002,1.172191907762740E-001,
1.645000000000000E+009,-8.974840636350526E-001,-3.594309533232862E-001,-1.807047540936669E-002,1.165205971637384E-001,
1.650000000000000E+009,-9.003536117278774E-001,-3.519699231536659E-001,-1.856155876415535E-002,1.155798815868118E-001,
1.655000000000000E+009,-9.030174552264065E-001,-3.443026349195522E-001,-1.820938050889500E-002,1.154944911864003E-001,
1.660000000000000E+009,-9.054556902403677E-001,-3.367226830417902E-001,-1.746648474468544E-002,1.156436510214717E-001,
1.665000000000000E+009,-9.083223209438516E-001,-3.291467551983821E-001,-1.669759147582627E-002,1.166829856252997E-001,
1.670000000000000E+009,-9.118276359811208E-001,-3.212458610224354E-001,-1.597079733468201E-002,1.176929592227596E-001,
1.675000000000000E+009,-9.152034563457265E-001,-3.133300100826770E-001,-1.355894530244467E-002,1.181374732509989E-001,
1.680000000000000E+009,-9.182602025689908E-001,-3.053970552251527E-001,-1.078141579296234E-002,1.192936804762916E-001,
1.685000000000000E+009,-9.215211513555641E-001,-2.973772715541023E-001,-7.597091859915382E-003,1.196563094080617E-001,
1.690000000000000E+009,-9.240560460455337E-001,-2.890022619692774E-001,-5.105845696034833E-003,1.202025446390392E-001,
1.695000000000000E+009,-9.265459267897671E-001,-2.809740757505713E-001,-1.790987553441180E-003,1.194319810152427E-001,
1.700000000000000E+009,-9.285050724439175E-001,-2.728365280828034E-001,1.024678726540468E-003,1.182039608077634E-001,
1.705000000000000E+009,-9.301506284945937E-001,-2.646304815851270E-001,1.358483759058831E-003,1.177482109246991E-001,
1.710000000000000E+009,-9.320710486708376E-001,-2.567153636064790E-001,4.391302908290129E-003,1.164910721039713E-001,
1.715000000000000E+009,-9.339497708807558E-001,-2.487274068839573E-001,5.683464899786894E-003,1.147884485517258E-001,
1.720000000000000E+009,-9.360591998775368E-001,-2.409955921729154E-001,6.555427496586477E-003,1.139195162048075E-001,
1.725000000000000E+009,-9.373923577428993E-001,-2.331279385257206E-001,7.748252756047193E-003,1.128043201253681E-001,
1.730000000000000E+009,-9.388408808223563E-001,-2.256512235855475E-001,7.090554605333073E-003,1.120340730431520E-001,
1.735000000000000E+009,-9.406642990434511E-001,-2.182585029438401E-001,6.761083030966570E-003,1.108346813779431E-001,
1.740000000000000E+009,-9.424815097703689E-001,-2.106821922756208E-001,5.787425999488222E-003,1.109102480002916E-001,
1.745000000000000E+009,-9.447082228296633E-001,-2.030249665332542E-001,6.009483667372801E-003,1.105973351504731E-001,
1.750000000000000E+009,-9.465523886409561E-001,-1.953141700388798E-001,5.250946275643435E-003,1.097065469258347E-001,
1.755000000000000E+009,-9.487574991616116E-001,-1.874636145522342E-001,4.543037658173619E-003,1.093714819851895E-001,
1.760000000000000E+009,-9.507861109534219E-001,-1.797616580553296E-001,3.988258164390784E-003,1.089520045191861E-001,
1.765000000000000E+009,-9.526823850525528E-001,-1.716097935261295E-001,4.377399945409137E-003,1.095050498771230E-001,
1.770000000000000E+009,-9.544660819690700E-001,-1.629862777539970E-001,4.414904907183305E-003,1.095587186914046E-001,
1.775000000000000E+009,-9.560173029787895E-001,-1.545618630908381E-001,4.119415224553997E-003,1.102274115684125E-001,
1.780000000000000E+009,-9.575364346216677E-001,-1.459914560344974E-001,4.814564851421472E-003,1.093272279529946E-001,
1.785000000000000E+009,-9.586642242048477E-001,-1.374129409757312E-001,6.090211549622518E-003,1.086129496542516E-001,
1.790000000000000E+009,-9.600223713381400E-001,-1.292975446890720E-001,6.736768445397759E-003,1.089005768325035E-001,
1.795000000000000E+009,-9.612767965279788E-001,-1.210178751863585E-001,8.464581622936137E-003,1.094496640725995E-001,
1.800000000000000E+009,-9.622978965976663E-001,-1.126815109209185E-001,9.542408572673343E-003,1.092567163233690E-001,
1.805000000000000E+009,-9.628681079395046E-001,-1.043514397131693E-001,1.199698257997424E-002,1.095386702888038E-001,
1.810000000000000E+009,-9.637820342214211E-001,-9.559394522212864E-002,1.399977602037568E-002,1.096793744140698E-001,
1.815000000000000E+009,-9.645362069998696E-001,-8.709422661741503E-002,1.684020921200467E-002,1.094142153275414E-001,
1.820000000000000E+009,-9.647450984915176E-001,-7.892058019661594E-002,1.954952111197320E-002,1.097359679317051E-001,
1.825000000000000E+009,-9.655626184791666E-001,-7.041247923149187E-002,2.146662271544873E-002,1.092355981169776E-001,
