% Version 1.00
%
%freq[Hz],re:Trc13_S21,im:Trc13_S21,re:Trc14_S11,im:Trc14_S11,
1.000000000000000E+009,-1.303308667052227E-001,-9.723511939926479E-001,-9.792873304239944E-002,2.991847080848063E-002,
1.005000000000000E+009,-1.394017999174643E-001,-9.708567036176965E-001,-9.694608396348738E-002,3.111342653242489E-002,
1.010000000000000E+009,-1.480926000328325E-001,-9.687793911006719E-001,-9.605269487312546E-002,3.083632989600669E-002,
1.015000000000000E+009,-1.566598917189140E-001,-9.667590026672026E-001,-9.563858216583700E-002,3.267973881457359E-002,
1.020000000000000E+009,-1.649404216406115E-001,-9.642366517630343E-001,-9.523201924655535E-002,3.384829869519895E-002,
1.025000000000000E+009,-1.727343061413862E-001,-9.615816930173288E-001,-9.299410812807807E-002,3.541933815634493E-002,
1.030000000000000E+009,-1.803123463233755E-001,-9.593635866730399E-001,-9.297880186538990E-002,3.762036514459227E-002,
1.035000000000000E+009,-1.879099842708864E-001,-9.575279156592723E-001,-9.141504471907987E-002,3.942663918890575E-002,
1.040000000000000E+009,-1.952314157120712E-001,-9.560386918238608E-001,-9.002833466743289E-002,4.073690077242055E-002,
1.045000000000000E+009,-2.028377054073438E-001,-9.548693773699692E-001,-8.851999300263945E-002,4.352940150571553E-002,
1.050000000000000E+009,-2.111991436417076E-001,-9.535727988876440E-001,-8.707052153592755E-002,4.645990322871525E-002,
1.055000000000000E+009,-2.199094075290720E-001,-9.523448788755029E-001,-8.380079763484780E-002,4.743424198246318E-002,
1.060000000000000E+009,-2.290348374036707E-001,-9.506228678953985E-001,-8.080049428655671E-002,4.933100095272398E-002,
1.065000000000000E+009,-2.383921039218270E-001,-9.491114180914506E-001,-7.843471413797379E-002,5.038819859418019E-002,
1.070000000000000E+009,-2.482790135809390E-001,-9.469941631105040E-001,-7.493522252823914E-002,5.023502286459039E-002,
1.075000000000000E+009,-2.580886629109528E-001,-9.447128481199167E-001,-7.241355274248210E-002,5.023421301570997E-002,
1.080000000000000E+009,-2.682028823192740E-001,-9.419847456903906E-001,-7.141983759954995E-002,4.901596121377783E-002,
1.085000000000000E+009,-2.785105861629816E-001,-9.391799024208922E-001,-6.886172168999245E-002,4.834908192624603E-002,
1.090000000000000E+009,-2.883157514569751E-001,-9.360347433982731E-001,-6.759122975766041E-002,4.686403252270276E-002,
1.095000000000000E+009,-2.983644357348417E-001,-9.327843262435189E-001,-6.655601879101707E-002,4.533882092768276E-002,
1.100000000000000E+009,-3.083956110274095E-001,-9.289423892880427E-001,-6.609016170856039E-002,4.376785703160650E-002,
1.105000000000000E+009,-3.185939451307775E-001,-9.255573227165759E-001,-6.536205723019786E-002,4.334165248106692E-002,
1.110000000000000E+009,-3.287783273269987E-001,-9.215616296525198E-001,-6.471849754023851E-002,4.249363684665503E-002,
1.115000000000000E+009,-3.391897615758471E-001,-9.173561041825761E-001,-6.372861512756711E-002,4.097999008332144E-002,
1.120000000000000E+009,-3.499471895640376E-001,-9.128814036486864E-001,-6.132968751413623E-002,4.188177766995788E-002,
1.125000000000000E+009,-3.611477048974453E-001,-9.087207863566995E-001,-5.949317265392123E-002,4.210925459944022E-002,
1.130000000000000E+009,-3.730559874269168E-001,-9.042022038092660E-001,-5.573782280951668E-002,4.313195001948984E-002,
1.135000000000000E+009,-3.856695495963145E-001,-8.988690707990122E-001,-4.970698351071416E-002,4.345687946708791E-002,
1.140000000000000E+009,-3.988186206715605E-001,-8.930649239827024E-001,-4.395403461389563E-002,4.332332467082592E-002,
1.145000000000000E+009,-4.134683289497503E-001,-8.863499348728158E-001,-3.528373602322337E-002,4.292738416337547E-002,
1.150000000000000E+009,-4.289066394094526E-001,-8.780480388244197E-001,-2.481423645238516E-002,4.024559315667135E-002,
1.155000000000000E+009,-4.469198401247397E-001,-8.684663676139863E-001,-1.142688417524775E-002,3.695748816365761E-002,
1.160000000000000E+009,-4.678926530717978E-001,-8.563360369871532E-001,5.228516487146881E-003,3.072233747210370E-002,
1.165000000000000E+009,-4.923906100651206E-001,-8.398959660412655E-001,2.547017782932134E-002,2.037114388727392E-002,
1.170000000000000E+009,-5.222510489896668E-001,-8.158860603283807E-001,5.275623399628242E-002,2.268521687253403E-003,
1.175000000000000E+009,-5.590913194617856E-001,-7.779017935775709E-001,8.786819554637965E-002,-3.158964640329966E-002,
1.180000000000000E+009,-6.041342321719725E-001,-7.086516660847737E-001,1.329836743336206E-001,-9.613259896796962E-002,
1.185000000000000E+009,-6.382733618335754E-001,-5.625799516609862E-001,1.738976945884702E-001,-2.412354668550390E-001,
1.190000000000000E+009,-4.911544842581953E-001,-2.879973229176198E-001,3.772079518948911E-002,-5.342397396019649E-001,
1.195000000000000E+009,-2.596948006301927E-002,-3.920976631805196E-001,-4.577479377366628E-001,-4.608113169069472E-001,
1.200000000000000E+009,-2.457962810129061E-002,-7.295287149755488E-001,-4.934402038541744E-001,-1.083110411001551E-001,
1.205000000000000E+009,-1.402449637273706E-001,-8.428091950996164E-001,-3.907849321263931E-001,2.157941607735787E-002,
1.210000000000000E+009,-2.207900532526894E-001,-8.757451927594018E-001,-3.179395736531975E-001,6.600768596633502E-002,
1.215000000000000E+009,-2.750087399208833E-001,-8.849684693129294E-001,-2.713823441507293E-001,8.359319733212320E-002,
1.220000000000000E+009,-3.139951656290366E-001,-8.858347823241620E-001,-2.391125800357788E-001,9.051535499509110E-002,
1.225000000000000E+009,-3.437850267653940E-001,-8.833196737882131E-001,-2.169385788911200E-001,9.334217673436916E-002,
1.230000000000000E+009,-3.681226675113255E-001,-8.789722083058296E-001,-2.013929717154140E-001,9.558103807818340E-002,
1.235000000000000E+009,-3.883446915018954E-001,-8.741500154446853E-001,-1.881313767787887E-001,9.680019778228272E-002,
1.240000000000000E+009,-4.061312246552489E-001,-8.686468659751528E-001,-1.795658690423038E-001,9.656233405690472E-002,
1.245000000000000E+009,-4.219942172789172E-001,-8.635901525015814E-001,-1.704390800093597E-001,9.624399930286369E-002,
1.250000000000000E+009,-4.359958043748576E-001,-8.579706595467873E-001,-1.644391851393712E-001,9.696250693363716E-002,
1.255000000000000E+009,-4.489523322489362E-001,-8.527031782817310E-001,-1.599467757982665E-001,9.736479306822700E-002,
1.260000000000000E+009,-4.610308636909809E-001,-8.474018491856756E-001,-1.543828404587541E-001,9.760782989094007E-002,
1.265000000000000E+009,-4.720003161304860E-001,-8.418728155150789E-001,-1.512037053890210E-001,9.920433361779008E-002,
1.270000000000000E+009,-4.820690175404815E-001,-8.369056672975082E-001,-1.472627136707810E-001,1.011017824342900E-001,
1.275000000000000E+009,-4.917363523174164E-001,-8.315669562316300E-001,-1.429696152584036E-001,1.019034364151430E-001,
1.280000000000000E+009,-5.008687410446933E-001,-8.267002232672938E-001,-1.382911920667818E-001,1.045353691670071E-001,
1.285000000000000E+009,-5.094405992039566E-001,-8.216735291452089E-001,-1.339050509045196E-001,1.063224061385199E-001,
1.290000000000000E+009,-5.181469280424138E-001,-8.165208181469824E-001,-1.293998776253850E-001,1.083369591636315E-001,
1.295000000000000E+009,-5.264326959052860E-001,-8.112721544412065E-001,-1.252163854273885E-001,1.086129762132620E-001,
1.300000000000000E+009,-5.339025015872733E-001,-8.059660883858377E-001,-1.210350842776811E-001,1.109163427673687E-001,
1.305000000000000E+009,-5.416123039787006E-001,-8.008561057860479E-001,-1.159765089019972E-001,1.119445431579467E-001,
1.310000000000000E+009,-5.489448113995508E-001,-7.958538035151588E-001,-1.121857898779381E-001,1.129289634002833E-001,
1.315000000000000E+009,-5.562777318884604E-001,-7.911034415056175E-001,-1.080091646589007E-001,1.131897590503141E-001,
1.320000000000000E+009,-5.638083052022167E-001,-7.863258389443186E-001,-1.039709734774907E-001,1.135002230994936E-001,
1.325000000000000E+009,-5.713762388735079E-001,-7.814727180868605E-001,-1.010720838307228E-001,1.128853166285677E-001,
1.330000000000000E+009,-5.792224624281943E-001,-7.764418708415078E-001,-9.797077366773292E-002,1.130549280308345E-001,
1.335000000000000E+009,-5.863193679288700E-001,-7.711284636946867E-001,-9.654913278771818E-002,1.125546624576255E-001,
1.340000000000000E+009,-5.935456288338022E-001,-7.658614834738010E-001,-9.518673856853213E-002,1.120169065368873E-001,
1.345000000000000E+009,-6.004962822001967E-001,-7.604912272818066E-001,-9.385996104198444E-002,1.110237316736918E-001,
1.350000000000000E+009,-6.074325560048987E-001,-7.550327747866240E-001,-9.358078005351585E-002,1.103751970313843E-001,
1.355000000000000E+009,-6.143139619986733E-001,-7.498230304889488E-001,-9.243303939141817E-002,1.101677228071309E-001,
1.360000000000000E+009,-6.216203433347540E-001,-7.444824224523908E-001,-9.353909500683735E-002,1.092600351514878E-001,
1.365000000000000E+009,-6.286396375441961E-001,-7.390408323137674E-001,-9.324852525061129E-002,1.098177776230433E-001,
1.370000000000000E+009,-6.358844965719481E-001,-7.334081770898984E-001,-9.248436256951076E-002,1.110573233491686E-001,
1.375000000000000E+009,-6.427347564352516E-001,-7.275095079126879E-001,-9.190386711092505E-002,1.105014859484347E-001,
1.380000000000000E+009,-6.496713180202401E-001,-7.213896151554118E-001,-9.122832452998071E-002,1.119431032399028E-001,
1.385000000000000E+009,-6.564472133151840E-001,-7.145826791559480E-001,-9.035138590822164E-002,1.128571571124291E-001,
1.390000000000000E+009,-6.630354140820023E-001,-7.080805461244006E-001,-8.924912597279977E-002,1.133616225487153E-001,
1.395000000000000E+009,-6.695741033108997E-001,-7.016027767735146E-001,-8.728582127202408E-002,1.142376483786879E-001,
1.400000000000000E+009,-6.761395617620722E-001,-6.950520383506068E-001,-8.483828215014630E-002,1.151773824790439E-001,
1.405000000000000E+009,-6.826824977552808E-001,-6.882725806907180E-001,-8.313506849315749E-002,1.157764854426353E-001,
1.410000000000000E+009,-6.892638904218157E-001,-6.817776169251054E-001,-8.104205799186828E-002,1.165687497854174E-001,
1.415000000000000E+009,-6.955740326073051E-001,-6.753441438227076E-001,-7.938474250969040E-002,1.173216374985575E-001,
1.420000000000000E+009,-7.016879907330039E-001,-6.687286032934297E-001,-7.669344433279780E-002,1.187925667720919E-001,
1.425000000000000E+009,-7.080523406005426E-001,-6.620974456552285E-001,-7.450985234511498E-002,1.189619624975353E-001,
1.430000000000000E+009,-7.135645106845593E-001,-6.557571547880672E-001,-7.169824822065719E-002,1.197219074328641E-001,
1.435000000000000E+009,-7.190227357393901E-001,-6.488304808159194E-001,-6.998339461166481E-002,1.211420901561079E-001,
1.440000000000000E+009,-7.248191772260642E-001,-6.428484267127053E-001,-6.687322005424724E-002,1.225010056519110E-001,
1.445000000000000E+009,-7.305685972589675E-001,-6.365879915797040E-001,-6.410321348069879E-002,1.232214434441048E-001,
1.450000000000000E+009,-7.364279349721318E-001,-6.302423885580171E-001,-6.159651301021113E-002,1.239944050996823E-001,
1.455000000000000E+009,-7.421568323292264E-001,-6.238596586529440E-001,-5.881121140895088E-002,1.242148883622930E-001,
1.460000000000000E+009,-7.476775541105376E-001,-6.173991743669116E-001,-5.696329350495991E-002,1.227506490637330E-001,
1.465000000000000E+009,-7.525849619743577E-001,-6.111057691765438E-001,-5.468951133157626E-002,1.233340203664284E-001,
1.470000000000000E+009,-7.578692897121171E-001,-6.047152243296141E-001,-5.366658409192353E-002,1.225461005684638E-001,
1.475000000000000E+009,-7.630993625710074E-001,-5.980735298418378E-001,-5.263839987633787E-002,1.218002566506786E-001,
1.480000000000000E+009,-7.684698189004346E-001,-5.915134050989871E-001,-5.187736546823048E-002,1.201700756340027E-001,
1.485000000000000E+009,-7.737306058751946E-001,-5.843645527206014E-001,-5.180477270819442E-002,1.192011101831705E-001,
1.490000000000000E+009,-7.789395138329283E-001,-5.777748249158775E-001,-5.198592323190650E-002,1.178486990983688E-001,
1.495000000000000E+009,-7.839737431915888E-001,-5.708706853667375E-001,-5.306043956735559E-002,1.178147561412505E-001,
1.500000000000000E+009,-7.890942939773544E-001,-5.639800892566929E-001,-5.307438588532935E-002,1.171408025749858E-001,
1.505000000000000E+009,-7.942150093433229E-001,-5.572468924695455E-001,-5.286950229405731E-002,1.172106332410976E-001,
1.510000000000000E+009,-7.993343774910237E-001,-5.502402222408265E-001,-5.296805517561040E-002,1.178903397082236E-001,
1.515000000000000E+009,-8.040961005477569E-001,-5.431833782227582E-001,-5.303949994566957E-002,1.194537345295163E-001,
1.520000000000000E+009,-8.090296522725997E-001,-5.361432781635011E-001,-5.199739596868273E-002,1.198924708025249E-001,
1.525000000000000E+009,-8.135284909110832E-001,-5.293498662256462E-001,-5.002784289593601E-002,1.206708456611807E-001,
1.530000000000000E+009,-8.177982314920784E-001,-5.220068507631885E-001,-4.932772140156922E-002,1.216792015181360E-001,
1.535000000000000E+009,-8.219454691243178E-001,-5.150667300519476E-001,-4.681692378505303E-002,1.220107211081804E-001,
1.540000000000000E+009,-8.256698072733399E-001,-5.079143336855001E-001,-4.398554179454530E-002,1.232075561927269E-001,
1.545000000000000E+009,-8.294866602683930E-001,-5.007067624799110E-001,-4.227045616442331E-002,1.226285754246569E-001,
1.550000000000000E+009,-8.333953192261208E-001,-4.934553013850211E-001,-3.930900573424832E-002,1.238594707201305E-001,
1.555000000000000E+009,-8.371527063225273E-001,-4.865843612947605E-001,-3.710643664110599E-002,1.236530697266040E-001,
1.560000000000000E+009,-8.411231128650112E-001,-4.793570936911826E-001,-3.333124240509112E-002,1.233035490760899E-001,
1.565000000000000E+009,-8.445871960051389E-001,-4.718424478857315E-001,-3.143100132492989E-002,1.241066979811131E-001,
1.570000000000000E+009,-8.479825140320338E-001,-4.645635734986870E-001,-2.927949383821277E-002,1.238633481006491E-001,
1.575000000000000E+009,-8.515201889097400E-001,-4.571491784642298E-001,-2.763123832252920E-002,1.240969415512973E-001,
1.580000000000000E+009,-8.547707086377231E-001,-4.499094105929437E-001,-2.730199365099908E-002,1.237116450109825E-001,
1.585000000000000E+009,-8.580275212493411E-001,-4.431128997262749E-001,-2.465403301912773E-002,1.244400697049450E-001,
1.590000000000000E+009,-8.614240341347652E-001,-4.363098519121328E-001,-2.348706280783433E-002,1.242234803644116E-001,
1.595000000000000E+009,-8.648271552401758E-001,-4.294977885568199E-001,-2.255493536287693E-002,1.245589387772238E-001,
1.600000000000000E+009,-8.685262607287547E-001,-4.228628684427949E-001,-2.140162219689976E-002,1.238408323116757E-001,
1.605000000000000E+009,-8.720043001358089E-001,-4.157941358643126E-001,-1.964654420953055E-002,1.248897037743158E-001,
1.610000000000000E+009,-8.756993494003355E-001,-4.084736255097715E-001,-1.899974933589746E-002,1.235120036298747E-001,
1.615000000000000E+009,-8.789190925428605E-001,-4.014469675932495E-001,-1.705762169685404E-002,1.235916159405248E-001,
1.620000000000000E+009,-8.820266529931414E-001,-3.941247522845456E-001,-1.629945206927098E-002,1.225079627805782E-001,
1.625000000000000E+009,-8.851828490023758E-001,-3.868326159420319E-001,-1.608094768177075E-002,1.204917646673198E-001,
1.630000000000000E+009,-8.881726746104012E-001,-3.791491881500291E-001,-1.591392762805294E-002,1.191835297445908E-001,
1.635000000000000E+009,-8.911373508352943E-001,-3.724513875722020E-001,-1.523105623608831E-002,1.183242127869084E-001,
1.640000000000000E+009,-8.942762286949010E-001,-3.649429922403117E-001,-1.617062647583030E-002,1.170894439347345E-001,
1.645000000000000E+009,-8.969947338915696E-001,-3.571003409131426E-001,-1.522244295576446E-002,1.162719090714982E-001,
1.650000000000000E+009,-8.997747127149035E-001,-3.496387730318077E-001,-1.575586634299937E-002,1.152837904877369E-001,
1.655000000000000E+009,-9.023934884013358E-001,-3.420171748000273E-001,-1.541580571359093E-002,1.151400685009451E-001,
1.660000000000000E+009,-9.047894445757314E-001,-3.345011196888154E-001,-1.465847155526324E-002,1.152387391669471E-001,
1.665000000000000E+009,-9.076808402499521E-001,-3.269453402973185E-001,-1.390455987225975E-002,1.162762151035147E-001,
1.670000000000000E+009,-9.111032077447085E-001,-3.191004421748332E-001,-1.313286566310981E-002,1.173216031569944E-001,
1.675000000000000E+009,-9.144976592410089E-001,-3.111957125676205E-001,-1.068108650551971E-002,1.177924325947216E-001,
1.680000000000000E+009,-9.175729400113062E-001,-3.033511872360217E-001,-7.858652380156716E-003,1.189653129639524E-001,
1.685000000000000E+009,-9.209194653645119E-001,-2.952402565340342E-001,-4.607779161501531E-003,1.193504100213217E-001,
1.690000000000000E+009,-9.234272588522960E-001,-2.869236508702523E-001,-2.109571052333089E-003,1.198814515008795E-001,
1.695000000000000E+009,-9.257324552127896E-001,-2.788749787322400E-001,1.212591624678964E-003,1.191504470434821E-001,
1.700000000000000E+009,-9.277457609035762E-001,-2.706654246044840E-001,3.985547792637085E-003,1.179972939129945E-001,
1.705000000000000E+009,-9.293937451361577E-001,-2.626281506407612E-001,4.343585727060883E-003,1.176012048950380E-001,
1.710000000000000E+009,-9.312543550498839E-001,-2.547571742146423E-001,7.350324721741394E-003,1.163824563566642E-001,
1.715000000000000E+009,-9.332665350369066E-001,-2.466670803564461E-001,8.624199919835963E-003,1.147902468535038E-001,
1.720000000000000E+009,-9.352179495977060E-001,-2.389880244842977E-001,9.494211833064044E-003,1.139442922711474E-001,
1.725000000000000E+009,-9.365447753019812E-001,-2.310499058473838E-001,1.070502901426260E-002,1.128561777169836E-001,
1.730000000000000E+009,-9.379613255352168E-001,-2.236396028679366E-001,9.996103930706721E-003,1.120351711777544E-001,
1.735000000000000E+009,-9.397724299352949E-001,-2.163467348426814E-001,9.620035219944235E-003,1.108461286090157E-001,
1.740000000000000E+009,-9.416726816310709E-001,-2.087299212367971E-001,8.620960170385205E-003,1.108746895090288E-001,
1.745000000000000E+009,-9.439016881326070E-001,-2.010566547612617E-001,8.760952978507496E-003,1.105139743200092E-001,
1.750000000000000E+009,-9.457880550274047E-001,-1.934362985120542E-001,7.970480593913438E-003,1.095915141335661E-001,
1.755000000000000E+009,-9.479770459726336E-001,-1.855523728453969E-001,7.209652355468560E-003,1.091948347188552E-001,
1.760000000000000E+009,-9.501676792149687E-001,-1.775892858533779E-001,6.619811941494483E-003,1.087113835155939E-001,
1.765000000000000E+009,-9.519625598099653E-001,-1.696124916015906E-001,7.006921727617601E-003,1.092195652219087E-001,
1.770000000000000E+009,-9.537169740024395E-001,-1.609239849031704E-001,7.023108867846407E-003,1.092309982882114E-001,
1.775000000000000E+009,-9.553177746571260E-001,-1.523426291900197E-001,6.747247690351742E-003,1.098543761994226E-001,
1.780000000000000E+009,-9.567372430425769E-001,-1.439574247550912E-001,7.487008825058989E-003,1.088814831530973E-001,
1.785000000000000E+009,-9.579258687451886E-001,-1.352102385127710E-001,8.787427999823683E-003,1.081488283952920E-001,
1.790000000000000E+009,-9.593261889983542E-001,-1.271800586578785E-001,9.457843440757306E-003,1.084282586347970E-001,
1.795000000000000E+009,-9.605739048504599E-001,-1.188987780288926E-001,1.126344464598938E-002,1.089607433636824E-001,
1.800000000000000E+009,-9.615919453222788E-001,-1.103942268483310E-001,1.242441571058442E-002,1.087654463130153E-001,
1.805000000000000E+009,-9.621142957572484E-001,-1.021083498750124E-001,1.492026622916048E-002,1.090355687739152E-001,
1.810000000000000E+009,-9.629719308981424E-001,-9.332473857922977E-002,1.698827306363180E-002,1.092104433041878E-001,
1.815000000000000E+009,-9.636792098024050E-001,-8.483806431215919E-002,1.985134502933511E-002,1.089545307581205E-001,
1.820000000000000E+009,-9.638760063827637E-001,-7.659480861837198E-002,2.264509539588544E-002,1.093325549154044E-001,
1.825000000000000E+009,-9.646065615372488E-001,-6.810164665096904E-002,2.458590498700318E-002,1.088730600692047E-001,
