% Version 1.00
%
%freq[Hz],re:Agua,im:Agua,re:concentracao 0,1g/L,im:concentracao 0,1g/L,re:concentracao 0,5g/L,im:concentracao 0,5g/L,re:concentracao 1,0g/L,im:concentracao 1,0g/L
1.0000000000000000E+00,-8.5397638003974791E-02,-9.6856112841909203E-01,-8.6702887243620921E-02,-9.6903668478919203E-01,-8.6932966148853319E-02,-9.6921591205596935E-01,-8.6952595139606043E-02,-9.6932215187835280E-01,
1.0050000000000000E+00,-9.3743874551873482E-02,-9.6702104724865456E-01,-9.5092862535533243E-02,-9.6759272946184338E-01,-9.5308080470561996E-02,-9.6769849586486800E-01,-9.5369671912050855E-02,-9.6779993341310477E-01,
1.0100000000000000E+00,-1.0142348218341110E-01,-9.6533118358437542E-01,-1.0277442877919420E-01,-9.6582441723104162E-01,-1.0307640501260761E-01,-9.6601627359390285E-01,-1.0313905881013720E-01,-9.6603556794428058E-01,
1.0150000000000000E+00,-1.0818022844217950E-01,-9.6351046689936359E-01,-1.0967544458937740E-01,-9.6400252066660663E-01,-1.0999953796863560E-01,-9.6421855125427258E-01,-1.1005358763411310E-01,-9.6426560193858080E-01,
1.0200000000000000E+00,-1.1513193936365290E-01,-9.6234031484205396E-01,-1.1668610914508371E-01,-9.6264375341675823E-01,-1.1702210890054700E-01,-9.6279733448028582E-01,-1.1700425752201550E-01,-9.6284873117327996E-01,
1.0250000000000000E+00,-1.2172867481109480E-01,-9.6137509530294962E-01,-1.2322361499929080E-01,-9.6162038869572797E-01,-1.2353506240844730E-01,-9.6168613529205338E-01,-1.2351250824062550E-01,-9.6173537851923685E-01,
1.0300000000000000E+00,-1.2856286416117210E-01,-9.6097207210437119E-01,-1.2992605752589470E-01,-9.6099443450852517E-01,-1.3027640171051030E-01,-9.6109589309692400E-01,-1.3020113044289200E-01,-9.6115025800426601E-01,
1.0350000000000000E+00,-1.3630666748472420E-01,-9.6093462866712420E-01,-1.3762537186659790E-01,-9.6101674478092236E-01,-1.3794400708675389E-01,-9.6111268682479878E-01,-1.3785036591265629E-01,-9.6114690588945484E-01,
1.0400000000000000E+00,-1.4382198330101800E-01,-9.6040768895580120E-01,-1.4508037859568099E-01,-9.6046035374953820E-01,-1.4530078458786011E-01,-9.6052938146591205E-01,-1.4528518886413089E-01,-9.6059273485584518E-01,
1.0450000000000000E+00,-1.5155227598944401E-01,-9.5968065835165761E-01,-1.5272631194792419E-01,-9.5964345846339005E-01,-1.5306690516471869E-01,-9.5977014617919942E-01,-1.5294524017641839E-01,-9.5975915318090144E-01,
1.0500000000000000E+00,-1.5944560101287550E-01,-9.5834405933544320E-01,-1.6052307460692439E-01,-9.5833157414584680E-01,-1.6076521499156959E-01,-9.5840983076095598E-01,-1.6072899668947080E-01,-9.5847624176421897E-01,
1.0550000000000000E+00,-1.6794661349764761E-01,-9.5734850100851276E-01,-1.6892797126787759E-01,-9.5733034830695041E-01,-1.6922734849452981E-01,-9.5740330429077158E-01,-1.6914364173509111E-01,-9.5743204411734084E-01,
1.0600000000000000E+00,-1.7577506174024440E-01,-9.5599634485565876E-01,-1.7675041741959491E-01,-9.5600239983606838E-01,-1.7705565438270571E-01,-9.5606901063919081E-01,-1.7698525161040171E-01,-9.5612133705636182E-01,
1.0650000000000000E+00,-1.8479397295334959E-01,-9.5479951332357338E-01,-1.8578102796908710E-01,-9.5473393639548720E-01,-1.8602284445762640E-01,-9.5488285417556762E-01,-1.8599856517109020E-01,-9.5492326291457719E-01,
1.0700000000000000E+00,-1.9256257772692001E-01,-9.5270815920650298E-01,-1.9342511265839721E-01,-9.5270125904632796E-01,-1.9368957562446601E-01,-9.5281012868881243E-01,-1.9364790688336730E-01,-9.5283078141877042E-01,
1.0750000000000000E+00,-2.0087379939216249E-01,-9.5068596302741037E-01,-2.0177881670055201E-01,-9.5080054208588005E-01,-2.0200299541950231E-01,-9.5085188741683957E-01,-2.0198892582384470E-01,-9.5089263781689104E-01,
1.0800000000000000E+00,-2.0961160869990841E-01,-9.4923791339570718E-01,-2.1038222323197381E-01,-9.4934029949331078E-01,-2.1059936232566839E-01,-9.4939469633102436E-01,-2.1063509634023761E-01,-9.4943816366938016E-01,
1.0850000000000000E+00,-2.1814694107270199E-01,-9.4732575924887519E-01,-2.1894435587990341E-01,-9.4742390195596637E-01,-2.1909683673381811E-01,-9.4748367996215843E-01,-2.1913934845620781E-01,-9.4750793585148196E-01,
1.0900000000000000E+00,-2.2688466462672449E-01,-9.4520236026568716E-01,-2.2776504074374279E-01,-9.4533383564296958E-01,-2.2794178214073180E-01,-9.4541137266159081E-01,-2.2791236996261760E-01,-9.4550865023327701E-01,
1.0950000000000000E+00,-2.3451534645135080E-01,-9.4323333969326462E-01,-2.3540958125359360E-01,-9.4332267651750001E-01,-2.3564039475917820E-01,-9.4339055547714235E-01,-2.3567208077714760E-01,-9.4344684028887116E-01,
1.1000000000000000E+00,-2.4286293129115410E-01,-9.4143135788824184E-01,-2.4375945936677121E-01,-9.4153607203770484E-01,-2.4394797110557559E-01,-9.4161947202682517E-01,-2.4396148746936080E-01,-9.4164108979754635E-01,
1.1050000000000000E+00,-2.5032332540759439E-01,-9.3836879407141038E-01,-2.5123382418530521E-01,-9.3848126325467918E-01,-2.5145264005661022E-01,-9.3860054206848165E-01,-2.5147851250081488E-01,-9.3863090319865516E-01,
1.1100000000000000E+00,-2.5833413243654740E-01,-9.3621058388601797E-01,-2.5929939005104319E-01,-9.3631404216209080E-01,-2.5951025967597963E-01,-9.3642339296340960E-01,-2.5949237270820807E-01,-9.3642022260747582E-01,
1.1150000000000000E+00,-2.6621013408727451E-01,-9.3376524445768538E-01,-2.6710800152336500E-01,-9.3383505748092199E-01,-2.6733139724731447E-01,-9.3392873115539565E-01,-2.6736531532202790E-01,-9.3400285306916642E-01,
1.1200000000000000E+00,-2.7418485838853068E-01,-9.3164250638244517E-01,-2.7505912977207608E-01,-9.3167731842278978E-01,-2.7525351548194887E-01,-9.3176523475647000E-01,-2.7526601373979032E-01,-9.3182064610612836E-01,
1.1250000000000000E+00,-2.8175038528036328E-01,-9.2920215089690916E-01,-2.8260716115020568E-01,-9.2917361106532559E-01,-2.8282459330558779E-01,-9.2923436870574960E-01,-2.8284304578602543E-01,-9.2931278820875363E-01,
1.1300000000000000E+00,-2.8991781832103430E-01,-9.2700693056103800E-01,-2.9075318425345492E-01,-9.2696357047065281E-01,-2.9102043828964241E-01,-9.2705320014953640E-01,-2.9100139483175791E-01,-9.2711816913151379E-01,
1.1350000000000000E+00,-2.9817242967384278E-01,-9.2458005044150038E-01,-2.9905028707757042E-01,-9.2453684102308098E-01,-2.9927888374328621E-01,-9.2453363428115842E-01,-2.9933760339346660E-01,-9.2466904574543285E-01,
1.1400000000000000E+00,-3.0582936704029962E-01,-9.2186530774040443E-01,-3.0657639305012752E-01,-9.2167924106692656E-01,-3.0682138118743901E-01,-9.2177075481414805E-01,-3.0686466218841019E-01,-9.2184643235662600E-01,
1.1450000000000000E+00,-3.1395025548045907E-01,-9.1955742872736879E-01,-3.1471700143894821E-01,-9.1937459730366677E-01,-3.1486931529045109E-01,-9.1947531070709243E-01,-3.1491841582544361E-01,-9.1949392023165344E-01,
1.1500000000000000E+00,-3.2198631125194971E-01,-9.1618862315080718E-01,-3.2256800376495448E-01,-9.1604010035978478E-01,-3.2288710112571722E-01,-9.1615678548812896E-01,-3.2288900514283392E-01,-9.1618758732839123E-01,
1.1550000000000000E+00,-3.2984507998924728E-01,-9.1313790175467324E-01,-3.3044633759185438E-01,-9.1305126676246762E-01,-3.3064853405952460E-01,-9.1310758428573624E-01,-3.3068678528336592E-01,-9.1313831350315955E-01,
1.1600000000000000E+00,-3.3800570859682078E-01,-9.1091040625298758E-01,-3.3863838405736513E-01,-9.1074420698994996E-01,-3.3882933802604681E-01,-9.1091995544433602E-01,-3.3880372788628799E-01,-9.1092421428268877E-01,
1.1650000000000000E+00,-3.4611682190562598E-01,-9.0751143394967959E-01,-3.4674665090527268E-01,-9.0737642195820045E-01,-3.4689305300712592E-01,-9.0750268840789816E-01,-3.4697208051308909E-01,-9.0751136351240957E-01,
1.1700000000000000E+00,-3.5453039471221881E-01,-9.0389524760363960E-01,-3.5511884735202759E-01,-9.0379787545012302E-01,-3.5532377362251277E-01,-9.0381397285461440E-01,-3.5535792835877872E-01,-9.0390253703457080E-01,
1.1750000000000000E+00,-3.6304717531664921E-01,-9.0108885799925342E-01,-3.6363017327749447E-01,-9.0095149853723722E-01,-3.6386632614135739E-01,-9.0107642297744761E-01,-3.6391876150209390E-01,-9.0113355004740503E-01,
1.1800000000000000E+00,-3.7042162041007898E-01,-8.9824088527574875E-01,-3.7091837851153142E-01,-8.9818122762411001E-01,-3.7114200315475471E-01,-8.9825537929534938E-01,-3.7122090655062329E-01,-8.9829543495016495E-01,
1.1850000000000000E+00,-3.7825004202304602E-01,-8.9449398302920469E-01,-3.7875779318285019E-01,-8.9450888013943630E-01,-3.7893820395469680E-01,-8.9446229391098053E-01,-3.7908753654929012E-01,-8.9452364781632265E-01,
1.1900000000000000E+00,-3.8551411345525433E-01,-8.9133239301458178E-01,-3.8608714573938657E-01,-8.9134246964643449E-01,-3.8624730515480049E-01,-8.9137185611724878E-01,-3.8634889973059211E-01,-8.9136671419907287E-01,
1.1950000000000000E+00,-3.9340963680321500E-01,-8.8786088038069122E-01,-3.9391727826905459E-01,-8.8785821798857278E-01,-3.9412207016944889E-01,-8.8792880153656017E-01,-3.9417177854896440E-01,-8.8792756030489495E-01,
1.2000000000000000E+00,-4.0140740321180152E-01,-8.8485794343559032E-01,-4.0204084196412238E-01,-8.8489749599352563E-01,-4.0221579489707948E-01,-8.8494497594833377E-01,-4.0222008115649610E-01,-8.8491236474946877E-01,
1.2050000000000000E+00,-4.0878470236086240E-01,-8.8181861717958787E-01,-4.0938741552491020E-01,-8.8187522011466635E-01,-4.0954279794692999E-01,-8.8193651676177998E-01,-4.0961218271364419E-01,-8.8190738069661867E-01,
1.2100000000000000E+00,-4.1668533447903378E-01,-8.7815614569953904E-01,-4.1727326225213662E-01,-8.7819493327640163E-01,-4.1749632310867307E-01,-8.7821253690719625E-01,-4.1750664366041551E-01,-8.7823022783456417E-01,
1.2150000000000000E+00,-4.2441816068714922E-01,-8.7466643344298656E-01,-4.2498305366901618E-01,-8.7467503270829439E-01,-4.2519038000106818E-01,-8.7478222646713266E-01,-4.2512597200248881E-01,-8.7469465000792601E-01,
1.2200000000000000E+00,-4.3171382517726309E-01,-8.7067464361815472E-01,-4.3226298682302811E-01,-8.7066762546260967E-01,-4.3242291393280041E-01,-8.7072867870330828E-01,-4.3245252940490292E-01,-8.7069729982479682E-01,
1.2250000000000000E+00,-4.3974871920663688E-01,-8.6692484279833182E-01,-4.4036530829470200E-01,-8.6696968390580376E-01,-4.4054916095733648E-01,-8.6697367792129543E-01,-4.4060956108164928E-01,-8.6704733594857475E-01,
1.2300000000000000E+00,-4.4733209041373539E-01,-8.6260999542079764E-01,-4.4799652648118482E-01,-8.6260283677154637E-01,-4.4821121430397037E-01,-8.6262324943542501E-01,-4.4820374427560561E-01,-8.6272420827208030E-01,
1.2350000000000000E+00,-4.5513825876565500E-01,-8.5863427938329473E-01,-4.5571189961990621E-01,-8.5860642647071839E-01,-4.5592621402740491E-01,-8.5866815633773819E-01,-4.5602946472591260E-01,-8.5872962912289030E-01,
1.2400000000000000E+00,-4.6307398132776711E-01,-8.5401348615462946E-01,-4.6367732398823391E-01,-8.5400015191398937E-01,-4.6385087151527421E-01,-8.5403636779785175E-01,-4.6389404833377768E-01,-8.5409727873395214E-01,
1.2450000000000000E+00,-4.7112099404064173E-01,-8.4987581070482376E-01,-4.7173097303500749E-01,-8.4977762949707869E-01,-4.7193463125228891E-01,-8.4984541749954234E-01,-4.7197707399228678E-01,-8.4989577438527497E-01,
1.2500000000000000E+00,-4.7849950349313330E-01,-8.4566772526215672E-01,-4.7901096221447648E-01,-8.4562569205360272E-01,-4.7924075021743778E-01,-8.4566356554031397E-01,-4.7931922146823780E-01,-8.4573642026492091E-01,
1.2550000000000000E+00,-4.8588161213487369E-01,-8.4177672737680198E-01,-4.8643772722185519E-01,-8.4174526129627703E-01,-4.8668699092864998E-01,-8.4179987096786513E-01,-4.8673224999412140E-01,-8.4179874354589335E-01,
1.2600000000000000E+00,-4.9381630456595971E-01,-8.3692963154427602E-01,-4.9444078973699951E-01,-8.3685891351658925E-01,-4.9465061025619522E-01,-8.3691753816604642E-01,-4.9470642490364081E-01,-8.3693452636392540E-01,
1.2650000000000000E+00,-5.0026090538297119E-01,-8.3320594066314113E-01,-5.0084919065877953E-01,-8.3315818848580114E-01,-5.0105943355560312E-01,-8.3321212272644052E-01,-5.0111890781946844E-01,-8.3321234714180503E-01,
1.2700000000000000E+00,-5.0783862775137156E-01,-8.2863329399843488E-01,-5.0835706722075502E-01,-8.2854220091959396E-01,-5.0862991037368777E-01,-8.2863583869934099E-01,-5.0865437244952538E-01,-8.2863939755558724E-01,
1.2750000000000000E+00,-5.1426269227732391E-01,-8.2420961205630361E-01,-5.1479418602859717E-01,-8.2412219213243643E-01,-5.1500017347335825E-01,-8.2412989864349395E-01,-5.1506135947479392E-01,-8.2417677098420039E-01,
1.2800000000000000E+00,-5.2091882787187060E-01,-8.1975885411633487E-01,-5.2147010837194119E-01,-8.1962260693536115E-01,-5.2169445247650148E-01,-8.1962719001770024E-01,-5.2179558295624628E-01,-8.1972173330244336E-01,
1.2850000000000000E+00,-5.2757543288285091E-01,-8.1550547079922309E-01,-5.2808074388923809E-01,-8.1538451586633509E-01,-5.2825525245666516E-01,-8.1541207952499406E-01,-5.2841791877069610E-01,-8.1550660343547465E-01,
1.2900000000000000E+00,-5.3434460554860042E-01,-8.1079199045854611E-01,-5.3491165930116014E-01,-8.1065757612243017E-01,-5.3511543369293213E-01,-8.1066970844268815E-01,-5.3516714921206754E-01,-8.1067829245937562E-01,
1.2950000000000000E+00,-5.4051490973420779E-01,-8.0607960412771951E-01,-5.4099496935260238E-01,-8.0598613784228579E-01,-5.4118889036178586E-01,-8.0597466125488282E-01,-5.4129715901276254E-01,-8.0602257776079278E-01,
1.3000000000000000E+00,-5.4705752377352201E-01,-8.0112186123803175E-01,-5.4758285652836136E-01,-8.0098640955348399E-01,-5.4774683389663714E-01,-8.0104287128448493E-01,-5.4788310717394451E-01,-8.0101102802806656E-01,
1.3050000000000000E+00,-5.5278714206615243E-01,-7.9656388009151347E-01,-5.5331545142364291E-01,-7.9634941684450844E-01,-5.5352845764160163E-01,-7.9637179031372085E-01,-5.5358378394032837E-01,-7.9639892102361332E-01,
1.3100000000000000E+00,-5.5908032135603203E-01,-7.9186364793112474E-01,-5.5951799930483392E-01,-7.9168859395237934E-01,-5.5977125434875497E-01,-7.9176857204437279E-01,-5.5978999765240500E-01,-7.9178637996040369E-01,
1.3150000000000000E+00,-5.6482496700106688E-01,-7.8720664749532565E-01,-5.6527164302782307E-01,-7.8701973555029503E-01,-5.6543919782638563E-01,-7.8699260807037374E-01,-5.6553397350551804E-01,-7.8700828405216572E-01,
1.3200000000000000E+00,-5.7131633524579906E-01,-7.8289057405037310E-01,-5.7167732496273271E-01,-7.8267462688664868E-01,-5.7190212774276739E-01,-7.8271323690414452E-01,-5.7198190542815219E-01,-7.8272212426437615E-01,
1.3250000000000000E+00,-5.7771359886439000E-01,-7.7825402414199985E-01,-5.7800728082356700E-01,-7.7806918534690195E-01,-5.7824231605529786E-01,-7.7810626516342185E-01,-5.7832474031820935E-01,-7.7809431675695284E-01,
1.3300000000000000E+00,-5.8407076843467010E-01,-7.7374535527475830E-01,-5.8445119568659554E-01,-7.7357065965093996E-01,-5.8465182619094846E-01,-7.7362180461883567E-01,-5.8463724870040412E-01,-7.7359325369293974E-01,
1.3350000000000000E+00,-5.8992182019045980E-01,-7.6885709038967931E-01,-5.9024920304241757E-01,-7.6874629262202532E-01,-5.9044383773803721E-01,-7.6875290279388442E-01,-5.9044551674924184E-01,-7.6877507961478120E-01,
1.3400000000000000E+00,-5.9628642259476483E-01,-7.6388022362596597E-01,-5.9656668180183481E-01,-7.6379355584104525E-01,-5.9681034994125381E-01,-7.6384640264511128E-01,-5.9680625442619739E-01,-7.6384302591897102E-01,
1.3450000000000000E+00,-6.0249486000754138E-01,-7.5902135792941205E-01,-6.0278578918780434E-01,-7.5893974442191581E-01,-6.0306738185882580E-01,-7.5892374792099015E-01,-6.0306248619427927E-01,-7.5892613717552748E-01,
1.3500000000000000E+00,-6.0853871707232499E-01,-7.5452229633592749E-01,-6.0882807083816060E-01,-7.5443746331518424E-01,-6.0907924098968513E-01,-7.5451208162307759E-01,-6.0904222560004029E-01,-7.5442865251009095E-01,
1.3550000000000000E+00,-6.1397609555805077E-01,-7.4999771635050194E-01,-6.1429939977222858E-01,-7.4992297149439391E-01,-6.1448546724319453E-01,-7.4995330886840827E-01,-6.1450205781179323E-01,-7.4998729129878483E-01,
1.3600000000000000E+00,-6.2046684015616871E-01,-7.4482466449484674E-01,-6.2079215599295301E-01,-7.4474270346258775E-01,-6.2106224260330201E-01,-7.4474929504394538E-01,-6.2112617004532433E-01,-7.4475497014106806E-01,
1.3650000000000000E+00,-6.2705811109890552E-01,-7.4035891500070483E-01,-6.2745299270369115E-01,-7.4023125823759650E-01,-6.2763096733093271E-01,-7.4030103559494032E-01,-6.2770293765834595E-01,-7.4027109144865122E-01,
1.3700000000000000E+00,-6.3362644580601379E-01,-7.3479925961595649E-01,-6.3397850654352805E-01,-7.3474454360733021E-01,-6.3423379936218272E-01,-7.3472542371749883E-01,-6.3419877891617926E-01,-7.3475769407871938E-01,
1.3750000000000000E+00,-6.4013445287566406E-01,-7.2954383060542127E-01,-6.4045222363675047E-01,-7.2948419283937893E-01,-6.4075439319610616E-01,-7.2949597721099857E-01,-6.4076546007473456E-01,-7.2953544492622546E-01,
1.3800000000000000E+00,-6.4608750266740500E-01,-7.2314006242849105E-01,-6.4650689022712760E-01,-7.2311922233978554E-01,-6.4671248798370362E-01,-7.2310786657333381E-01,-6.4671119148510448E-01,-7.2320574085020350E-01,
1.3850000000000000E+00,-6.5225323606763608E-01,-7.1725948925032723E-01,-6.5257246960972615E-01,-7.1723682159764368E-01,-6.5286174592971813E-01,-7.1715622472763063E-01,-6.5287108054950915E-01,-7.1721106467277174E-01,
1.3900000000000000E+00,-6.5874871193739781E-01,-7.1117660968753194E-01,-6.5912443257944320E-01,-7.1111187531336595E-01,-6.5927881908416752E-01,-7.1102577753067020E-01,-6.5938446362636050E-01,-7.1105093123421093E-01,
1.3950000000000000E+00,-6.6506598211087664E-01,-7.0483022676194640E-01,-6.6550808645432802E-01,-7.0472327531159940E-01,-6.6571793413162239E-01,-7.0465343198776254E-01,-6.6572284805636017E-01,-7.0471633307506087E-01,
1.4000000000000000E+00,-6.7128868632076277E-01,-6.9811578284341791E-01,-6.7163809987296619E-01,-6.9805282267648461E-01,-6.7188848075866703E-01,-6.9792531270980840E-01,-6.7197881604755683E-01,-6.9801588010840354E-01,
1.4050000000000000E+00,-6.7753307695286191E-01,-6.9237856918158924E-01,-6.7790834528292365E-01,-6.9226552195719848E-01,-6.7804631834030160E-01,-6.9229325714111345E-01,-6.7812348446393200E-01,-6.9224457397666506E-01,
1.4100000000000000E+00,-6.8430786856600878E-01,-6.8607560856135041E-01,-6.8471062242421166E-01,-6.8599928860497161E-01,-6.8486982316970835E-01,-6.8590415353775047E-01,-6.8503347788355995E-01,-6.8593321961068343E-01,
1.4150000000000000E+00,-6.9003928718922336E-01,-6.7948121738516953E-01,-6.9041778266568321E-01,-6.7936539032937748E-01,-6.9057882223129274E-01,-6.7928819694519049E-01,-6.9075401546081738E-01,-6.7932235994217316E-01,
1.4200000000000000E+00,-6.9652048378816511E-01,-6.7283614293958627E-01,-6.9692970176391333E-01,-6.7266130340374908E-01,-6.9708107719421408E-01,-6.7264687614440932E-01,-6.9717151089796892E-01,-6.7267796297395166E-01,
1.4250000000000000E+00,-7.0175024085416537E-01,-6.6630438838599548E-01,-7.0208360926528157E-01,-6.6609675555851244E-01,-7.0226194877624526E-01,-6.6607762660980230E-01,-7.0236574454598188E-01,-6.6605700675983370E-01,
1.4300000000000000E+00,-7.0773651879776189E-01,-6.6026574755281064E-01,-7.0807550040928469E-01,-6.6005090432437508E-01,-7.0821168146133440E-01,-6.6000891523361216E-01,-7.0835145864351468E-01,-6.5999254071825197E-01,
1.4350000000000000E+00,-7.1341536936052508E-01,-6.5378724760292573E-01,-7.1367570861312546E-01,-6.5354392562358721E-01,-7.1394807243347169E-01,-6.5355890989303589E-01,-7.1398605600866283E-01,-6.5352261473690509E-01,
1.4400000000000000E+00,-7.1848588741582953E-01,-6.4733061287216587E-01,-7.1874914791799449E-01,-6.4702953595096302E-01,-7.1893702821731575E-01,-6.4707286758422866E-01,-7.1900182510052235E-01,-6.4700280934079990E-01,
1.4450000000000000E+00,-7.2391620887108976E-01,-6.4125015709399857E-01,-7.2413295721716486E-01,-6.4100697613655555E-01,-7.2432789554595967E-01,-6.4103822717666636E-01,-7.2436027802771297E-01,-6.4103005954140369E-01,
1.4500000000000000E+00,-7.2953026720764802E-01,-6.3467654812971197E-01,-7.2966776398494360E-01,-6.3444150725415449E-01,-7.2993421754837062E-01,-6.3447632865905779E-01,-7.3006021775212693E-01,-6.3441418674647920E-01,
