% Version 1.00
%
%freq[Hz],re:Trc13_S21,im:Trc13_S21,re:Trc14_S11,im:Trc14_S11,
1.000000000000000E+009,-1.300788819789887E-001,-9.718099832534790E-001,-1.012636497616768E-001,5.563814775086939E-004,
1.004549590536852E+009,-1.383259892463684E-001,-9.705242514610291E-001,-1.011129319667816E-001,2.955008298158646E-003,
1.009099181073703E+009,-1.463322639465332E-001,-9.687700271606445E-001,-9.944618493318558E-002,1.938262488692999E-003,
1.013648771610555E+009,-1.538761556148529E-001,-9.673340916633606E-001,-9.928561747074127E-002,1.871698070317507E-003,
1.018198362147407E+009,-1.610400229692459E-001,-9.647807478904724E-001,-9.973538666963577E-002,1.306829508394003E-003,
1.022747952684259E+009,-1.683232188224793E-001,-9.628166556358337E-001,-1.005437374114990E-001,3.828265471383929E-005,
1.027297543221110E+009,-1.752207130193710E-001,-9.612413048744202E-001,-1.005322188138962E-001,2.768690697848797E-003,
1.031847133757962E+009,-1.815709173679352E-001,-9.594239592552185E-001,-1.010574996471405E-001,2.201416995376349E-003,
1.036396724294814E+009,-1.894789338111877E-001,-9.576097726821899E-001,-1.007145941257477E-001,1.670420635491610E-003,
1.040946314831665E+009,-1.963665187358856E-001,-9.562743902206421E-001,-1.036033555865288E-001,3.210132941603661E-003,
1.045495905368517E+009,-2.035722881555557E-001,-9.551700353622437E-001,-1.052821725606918E-001,3.507138462737203E-003,
1.050045495905369E+009,-2.111650705337524E-001,-9.541180133819580E-001,-1.027428731322289E-001,4.855358041822910E-003,
1.054595086442220E+009,-2.194977253675461E-001,-9.531188607215881E-001,-1.045589298009872E-001,5.580958444625139E-003,
1.059144676979072E+009,-2.270211279392242E-001,-9.518968462944031E-001,-1.036292165517807E-001,8.132350631058216E-003,
1.063694267515924E+009,-2.349530309438705E-001,-9.502031207084656E-001,-1.040298119187355E-001,1.014276314526796E-002,
1.068243858052775E+009,-2.429866790771484E-001,-9.485236406326294E-001,-1.013524010777473E-001,1.119968574494124E-002,
1.072793448589627E+009,-2.510155737400055E-001,-9.460902214050293E-001,-1.012228354811668E-001,1.354005094617605E-002,
1.077343039126479E+009,-2.594856321811676E-001,-9.442014098167419E-001,-9.969454258680344E-002,1.448582578450441E-002,
1.081892629663330E+009,-2.667490541934967E-001,-9.417349100112915E-001,-9.967336803674698E-002,1.548066642135382E-002,
1.086442220200182E+009,-2.756281495094299E-001,-9.398226737976074E-001,-9.834127128124237E-002,1.576046273112297E-002,
1.090991810737034E+009,-2.834982275962830E-001,-9.374968409538269E-001,-9.613981097936630E-002,1.637557707726955E-002,
1.095541401273885E+009,-2.915803194046021E-001,-9.356427788734436E-001,-9.537536650896072E-002,1.671481877565384E-002,
1.100090991810737E+009,-3.003528416156769E-001,-9.329566359519959E-001,-9.399930387735367E-002,1.685733534395695E-002,
1.104640582347589E+009,-3.083619177341461E-001,-9.294042587280273E-001,-9.281142801046372E-002,1.813513226807118E-002,
1.109190172884440E+009,-3.170129060745239E-001,-9.270723462104797E-001,-9.176856279373169E-002,1.718085072934628E-002,
1.113739763421292E+009,-3.250816762447357E-001,-9.234596490859985E-001,-9.108875691890717E-002,1.772291772067547E-002,
1.118289353958144E+009,-3.334517478942871E-001,-9.208211302757263E-001,-8.981989324092865E-002,1.979524828493595E-002,
1.122838944494995E+009,-3.413643538951874E-001,-9.172723889350891E-001,-8.891060948371887E-002,1.896572671830654E-002,
1.127388535031847E+009,-3.497926294803619E-001,-9.145350456237793E-001,-8.562348783016205E-002,1.949325762689114E-002,
1.131938125568699E+009,-3.586081266403198E-001,-9.111587405204773E-001,-8.784628659486771E-002,2.169247530400753E-002,
1.136487716105551E+009,-3.680861294269562E-001,-9.075528383255005E-001,-8.504496514797211E-002,2.165681123733521E-002,
1.141037306642402E+009,-3.762266337871552E-001,-9.040184617042542E-001,-8.108428865671158E-002,2.181277982890606E-002,
1.145586897179254E+009,-3.852553367614746E-001,-8.999460339546204E-001,-8.029130101203919E-002,2.318266406655312E-002,
1.150136487716106E+009,-3.949337899684906E-001,-8.954744338989258E-001,-7.654248923063278E-002,2.312691695988178E-002,
1.154686078252957E+009,-4.044580459594727E-001,-8.911619186401367E-001,-7.352143526077271E-002,2.154193818569183E-002,
1.159235668789809E+009,-4.135451316833496E-001,-8.867897391319275E-001,-6.947868317365646E-002,2.103361487388611E-002,
1.163785259326661E+009,-4.239217638969421E-001,-8.819451332092285E-001,-6.670227646827698E-002,1.886317506432533E-002,
1.168334849863512E+009,-4.342713654041290E-001,-8.769482970237732E-001,-6.174051389098167E-002,1.674271002411842E-002,
1.172884440400364E+009,-4.457972943782806E-001,-8.720238208770752E-001,-5.674497038125992E-002,1.577469706535339E-002,
1.177434030937216E+009,-4.581020176410675E-001,-8.653972148895264E-001,-5.320372432470322E-002,1.432521734386683E-002,
1.181983621474067E+009,-4.705552160739899E-001,-8.584501743316650E-001,-4.741261526942253E-002,1.209672354161739E-002,
1.186533212010919E+009,-4.833944141864777E-001,-8.505871295928955E-001,-4.197669401764870E-002,8.525000885128975E-003,
1.191082802547771E+009,-4.983262419700623E-001,-8.410680890083313E-001,-3.259604051709175E-002,4.424953367561102E-003,
1.195632393084622E+009,-5.142744183540344E-001,-8.303837776184082E-001,-2.485429495573044E-002,-9.953901171684265E-004,
1.200181983621474E+009,-5.325995087623596E-001,-8.166341185569763E-001,-7.902872748672962E-003,-8.915144950151444E-003,
1.204731574158326E+009,-5.541459918022156E-001,-7.988556027412415E-001,8.981653489172459E-003,-2.099160291254520E-002,
1.209281164695178E+009,-5.800353884696960E-001,-7.736534476280212E-001,3.052096255123615E-002,-3.953978419303894E-002,
1.213830755232029E+009,-6.111468672752380E-001,-7.357786893844605E-001,5.833325535058975E-002,-6.943804025650024E-002,
1.218380345768881E+009,-6.467639207839966E-001,-6.715688705444336E-001,9.204830974340439E-002,-1.263986378908157E-001,
1.222929936305733E+009,-6.706877350807190E-001,-5.505187511444092E-001,1.247217953205109E-001,-2.427720427513123E-001,
1.227479526842584E+009,-5.906744003295898E-001,-3.341630399227142E-001,5.816091224551201E-002,-4.628305733203888E-001,
1.232029117379436E+009,-2.077086269855499E-001,-2.631856501102448E-001,-3.231006562709808E-001,-5.682407617568970E-001,
1.236578707916287E+009,-3.648303076624870E-002,-5.897282958030701E-001,-5.325073599815369E-001,-2.566407620906830E-001,
1.241128298453139E+009,-1.313183307647705E-001,-7.737057805061340E-001,-4.646073579788208E-001,-5.908420681953430E-002,
1.245677888989991E+009,-2.230105400085449E-001,-8.346443772315979E-001,-3.842762708663940E-001,1.662820950150490E-002,
1.250227479526843E+009,-2.876041829586029E-001,-8.537774682044983E-001,-3.286521136760712E-001,4.602935910224915E-002,
1.254777070063694E+009,-3.331670165061951E-001,-8.587044477462769E-001,-2.902645468711853E-001,6.008181348443031E-002,
1.259326660600546E+009,-3.672563731670380E-001,-8.586466312408447E-001,-2.614872753620148E-001,6.696792691946030E-002,
1.263876251137398E+009,-3.937966823577881E-001,-8.551224470138550E-001,-2.418447285890579E-001,7.098747044801712E-002,
1.268425841674249E+009,-4.161789715290070E-001,-8.509253859519959E-001,-2.261644303798676E-001,7.227797061204910E-002,
1.272975432211101E+009,-4.347811043262482E-001,-8.460057377815247E-001,-2.141320407390595E-001,7.377773523330689E-002,
1.277525022747953E+009,-4.508570134639740E-001,-8.411471843719482E-001,-2.039115428924561E-001,7.571411132812500E-002,
1.282074613284804E+009,-4.651289284229279E-001,-8.362323045730591E-001,-1.961822062730789E-001,7.499385625123978E-002,
1.286624203821656E+009,-4.782688915729523E-001,-8.313033580780029E-001,-1.884708851575851E-001,7.782129198312759E-002,
1.291173794358508E+009,-4.902868866920471E-001,-8.262313604354858E-001,-1.817193329334259E-001,7.792471349239349E-002,
1.295723384895360E+009,-5.018889904022217E-001,-8.205181956291199E-001,-1.775834560394287E-001,7.855387777090073E-002,
1.300272975432211E+009,-5.120909214019775E-001,-8.152539134025574E-001,-1.711880117654800E-001,7.922120392322540E-002,
1.304822565969063E+009,-5.222609639167786E-001,-8.092945218086243E-001,-1.672109514474869E-001,7.752396911382675E-002,
1.309372156505914E+009,-5.311545133590698E-001,-8.032956719398499E-001,-1.628914624452591E-001,7.853533327579498E-002,
1.313921747042766E+009,-5.399503111839294E-001,-7.972253561019898E-001,-1.585543155670166E-001,7.818904519081116E-002,
1.318471337579618E+009,-5.484660863876343E-001,-7.907918691635132E-001,-1.560577899217606E-001,7.694518566131592E-002,
1.323020928116470E+009,-5.560691952705383E-001,-7.856236100196838E-001,-1.523463279008865E-001,7.647692412137985E-002,
1.327570518653321E+009,-5.628175735473633E-001,-7.793413400650024E-001,-1.515927910804749E-001,7.725197821855545E-002,
1.332120109190173E+009,-5.703840851783752E-001,-7.738085985183716E-001,-1.487008631229401E-001,7.664796710014343E-002,
1.336669699727025E+009,-5.772351622581482E-001,-7.687352299690247E-001,-1.469434797763825E-001,7.702006399631500E-002,
1.341219290263876E+009,-5.833327770233154E-001,-7.630377411842346E-001,-1.458038985729218E-001,7.791057974100113E-002,
1.345768880800728E+009,-5.887949466705322E-001,-7.578876018524170E-001,-1.449617296457291E-001,7.688847184181213E-002,
1.350318471337580E+009,-5.958194136619568E-001,-7.530336976051331E-001,-1.445877104997635E-001,7.648670673370361E-002,
1.354868061874431E+009,-6.020393371582031E-001,-7.479535937309265E-001,-1.450890749692917E-001,7.916838675737381E-002,
1.359417652411283E+009,-6.081159114837647E-001,-7.437660098075867E-001,-1.430031061172485E-001,8.078522235155106E-002,
1.363967242948135E+009,-6.147217154502869E-001,-7.388728857040405E-001,-1.433669030666351E-001,8.344908058643341E-002,
1.368516833484986E+009,-6.208050251007080E-001,-7.348128557205200E-001,-1.406278908252716E-001,8.465397357940674E-002,
1.373066424021838E+009,-6.275911331176758E-001,-7.299009561538696E-001,-1.381294280290604E-001,8.625743538141251E-002,
1.377616014558690E+009,-6.338435411453247E-001,-7.251057028770447E-001,-1.377051472663879E-001,8.618123084306717E-002,
1.382165605095542E+009,-6.396065354347229E-001,-7.201446890830994E-001,-1.362383216619492E-001,8.912323415279388E-002,
1.386715195632393E+009,-6.463512778282166E-001,-7.145215868949890E-001,-1.338828206062317E-001,9.042432159185410E-002,
1.391264786169245E+009,-6.527190208435059E-001,-7.093958854675293E-001,-1.319603621959686E-001,8.942674100399017E-002,
1.395814376706096E+009,-6.586725115776062E-001,-7.044509649276733E-001,-1.297187209129334E-001,9.163331240415573E-002,
1.400363967242948E+009,-6.644933223724365E-001,-6.989431977272034E-001,-1.293532550334930E-001,9.152182191610336E-002,
1.404913557779800E+009,-6.704131960868835E-001,-6.935087442398071E-001,-1.275545507669449E-001,9.141879528760910E-002,
1.409463148316652E+009,-6.762671470642090E-001,-6.877769231796265E-001,-1.248444765806198E-001,9.152292460203171E-002,
1.414012738853503E+009,-6.824899911880493E-001,-6.826401352882385E-001,-1.246754154562950E-001,9.024547040462494E-002,
1.418562329390355E+009,-6.878705024719238E-001,-6.770060062408447E-001,-1.242896914482117E-001,9.227871149778366E-002,
1.423111919927207E+009,-6.939111948013306E-001,-6.706000566482544E-001,-1.258052587509155E-001,9.137502312660217E-002,
1.427661510464058E+009,-6.994515061378479E-001,-6.651935577392578E-001,-1.241898536682129E-001,9.080880880355835E-002,
1.432211101000910E+009,-7.044726014137268E-001,-6.594662666320801E-001,-1.236377805471420E-001,9.268334507942200E-002,
1.436760691537762E+009,-7.098549604415894E-001,-6.532706618309021E-001,-1.249648779630661E-001,9.529871493577957E-002,
1.441310282074613E+009,-7.153901457786560E-001,-6.476491093635559E-001,-1.229761093854904E-001,9.656637907028198E-002,
1.445859872611465E+009,-7.208823561668396E-001,-6.415849924087524E-001,-1.233007386326790E-001,9.740572422742844E-002,
1.450409463148317E+009,-7.259804010391235E-001,-6.357978582382202E-001,-1.228422746062279E-001,9.774440526962280E-002,
1.454959053685168E+009,-7.312877774238586E-001,-6.304392218589783E-001,-1.200305521488190E-001,9.973894059658051E-002,
1.459508644222020E+009,-7.364003062248230E-001,-6.241977214813232E-001,-1.205598115921021E-001,1.007358580827713E-001,
1.464058234758872E+009,-7.414535880088806E-001,-6.178091168403626E-001,-1.192899420857430E-001,1.007988080382347E-001,
1.468607825295723E+009,-7.460019588470459E-001,-6.115984916687012E-001,-1.176206469535828E-001,1.027251854538918E-001,
1.473157415832575E+009,-7.504279613494873E-001,-6.056411266326904E-001,-1.144190579652786E-001,1.050275117158890E-001,
1.477707006369427E+009,-7.542238235473633E-001,-5.996002554893494E-001,-1.145278364419937E-001,1.076471582055092E-001,
1.482256596906279E+009,-7.593665122985840E-001,-5.933400392532349E-001,-1.122312098741531E-001,1.096143573522568E-001,
1.486806187443130E+009,-7.634091377258301E-001,-5.880313515663147E-001,-1.107936948537827E-001,1.077951565384865E-001,
1.491355777979982E+009,-7.677565217018127E-001,-5.820789933204651E-001,-1.091459095478058E-001,1.091099455952644E-001,
1.495905368516834E+009,-7.719216942787170E-001,-5.765327811241150E-001,-1.087519377470017E-001,1.112374439835548E-001,
1.500454959053685E+009,-7.761878371238709E-001,-5.703375339508057E-001,-1.057531759142876E-001,1.117199137806892E-001,
1.505004549590537E+009,-7.804401516914368E-001,-5.652141571044922E-001,-1.026994287967682E-001,1.131679937243462E-001,
1.509554140127389E+009,-7.850551605224609E-001,-5.600162148475647E-001,-1.020121872425079E-001,1.128943860530853E-001,
1.514103730664240E+009,-7.897791862487793E-001,-5.538758635520935E-001,-1.029153987765312E-001,1.139047741889954E-001,
1.518653321201092E+009,-7.953928112983704E-001,-5.481564402580261E-001,-9.903869032859802E-002,1.146225929260254E-001,
1.523202911737944E+009,-7.999351024627686E-001,-5.423985123634338E-001,-9.852321445941925E-002,1.158021688461304E-001,
1.527752502274795E+009,-8.049569129943848E-001,-5.357784628868103E-001,-9.701251983642578E-002,1.160102859139442E-001,
1.532302092811647E+009,-8.094087243080139E-001,-5.296291112899780E-001,-9.684728831052780E-002,1.150396317243576E-001,
1.536851683348499E+009,-8.141105175018311E-001,-5.227945446968079E-001,-9.451837092638016E-002,1.156231760978699E-001,
1.541401273885350E+009,-8.186914324760437E-001,-5.166807770729065E-001,-9.307187050580978E-002,1.147709116339684E-001,
1.545950864422202E+009,-8.229682445526123E-001,-5.098609328269959E-001,-9.165444225072861E-002,1.143513098359108E-001,
1.550500454959054E+009,-8.272047042846680E-001,-5.029182434082031E-001,-9.105765074491501E-002,1.150497496128082E-001,
1.555050045495905E+009,-8.308229446411133E-001,-4.960598051548004E-001,-9.050316363573074E-002,1.156757771968842E-001,
1.559599636032757E+009,-8.351459503173828E-001,-4.892101287841797E-001,-8.879559487104416E-002,1.139034256339073E-001,
1.564149226569609E+009,-8.388801217079163E-001,-4.821955859661102E-001,-8.786113560199738E-002,1.145415678620338E-001,
1.568698817106461E+009,-8.432843089103699E-001,-4.752967953681946E-001,-8.944718539714813E-002,1.144556403160095E-001,
1.573248407643312E+009,-8.465101718902588E-001,-4.678054749965668E-001,-8.855080604553223E-002,1.155286431312561E-001,
1.577797998180164E+009,-8.502792716026306E-001,-4.608586430549622E-001,-8.687327802181244E-002,1.149214580655098E-001,
1.582347588717016E+009,-8.536874055862427E-001,-4.538564682006836E-001,-8.935841917991638E-002,1.167509257793427E-001,
1.586897179253867E+009,-8.571614027023315E-001,-4.469992816448212E-001,-8.568900078535080E-002,1.168200150132179E-001,
1.591446769790719E+009,-8.605152964591980E-001,-4.401865005493164E-001,-8.663059771060944E-002,1.191316545009613E-001,
1.595996360327570E+009,-8.635335564613342E-001,-4.328895807266235E-001,-8.565306663513184E-002,1.192165687680244E-001,
1.600545950864422E+009,-8.669137954711914E-001,-4.257550239562988E-001,-8.386535197496414E-002,1.219988837838173E-001,
1.605095541401274E+009,-8.694859743118286E-001,-4.189825356006622E-001,-8.253716677427292E-002,1.235081106424332E-001,
1.609645131938126E+009,-8.721541166305542E-001,-4.121484458446503E-001,-8.125649392604828E-002,1.237188056111336E-001,
1.614194722474977E+009,-8.747392892837524E-001,-4.053012430667877E-001,-7.920112460851669E-002,1.271422207355499E-001,
1.618744313011829E+009,-8.766269087791443E-001,-3.987176120281220E-001,-7.595220208168030E-002,1.269648671150208E-001,
1.623293903548681E+009,-8.794829845428467E-001,-3.926884531974793E-001,-7.276052981615067E-002,1.266612261533737E-001,
1.627843494085532E+009,-8.821772933006287E-001,-3.863644301891327E-001,-7.066007703542709E-002,1.276488453149796E-001,
1.632393084622384E+009,-8.847282528877258E-001,-3.800057470798492E-001,-6.769236177206039E-002,1.277873516082764E-001,
1.636942675159236E+009,-8.885815739631653E-001,-3.741493523120880E-001,-6.574557721614838E-002,1.267495453357697E-001,
1.641492265696087E+009,-8.919798731803894E-001,-3.674490749835968E-001,-6.649057567119598E-002,1.256582289934158E-001,
1.646041856232939E+009,-8.958987593650818E-001,-3.607668280601502E-001,-6.491069495677948E-002,1.258545517921448E-001,
1.650591446769791E+009,-8.989857435226440E-001,-3.538490533828735E-001,-6.330555677413940E-002,1.277377158403397E-001,
1.655141037306643E+009,-9.021278023719788E-001,-3.466508388519287E-001,-6.199972704052925E-002,1.257219165563583E-001,
1.659690627843494E+009,-9.054145812988281E-001,-3.386851549148560E-001,-6.363522261381149E-002,1.247247532010078E-001,
1.664240218380346E+009,-9.078277945518494E-001,-3.316723108291626E-001,-6.048570573329926E-002,1.256450563669205E-001,
1.668789808917198E+009,-9.109347462654114E-001,-3.244185149669647E-001,-6.194408610463142E-002,1.256176382303238E-001,
1.673339399454049E+009,-9.140005707740784E-001,-3.172867894172669E-001,-6.117559224367142E-002,1.261890083551407E-001,
1.677888989990901E+009,-9.164967536926270E-001,-3.088485002517700E-001,-6.075688451528549E-002,1.251675784587860E-001,
1.682438580527752E+009,-9.199846982955933E-001,-3.022608160972595E-001,-5.765951052308083E-002,1.259612292051315E-001,
1.686988171064604E+009,-9.222267866134644E-001,-2.943502366542816E-001,-5.675251036882401E-002,1.264346390962601E-001,
1.691537761601456E+009,-9.242823719978333E-001,-2.867336273193359E-001,-5.638306587934494E-002,1.278688460588455E-001,
1.696087352138308E+009,-9.264451861381531E-001,-2.788570821285248E-001,-5.591033399105072E-002,1.270600259304047E-001,
1.700636942675160E+009,-9.283226728439331E-001,-2.707619369029999E-001,-5.498457327485085E-002,1.271049380302429E-001,
1.705186533212011E+009,-9.302898049354553E-001,-2.624707221984863E-001,-5.398027226328850E-002,1.258222311735153E-001,
1.709736123748863E+009,-9.315837621688843E-001,-2.549925148487091E-001,-5.231271684169769E-002,1.273329854011536E-001,
1.714285714285714E+009,-9.338384866714478E-001,-2.473299801349640E-001,-5.326640605926514E-002,1.262036263942719E-001,
1.718835304822566E+009,-9.361240267753601E-001,-2.393307536840439E-001,-5.317296087741852E-002,1.242782175540924E-001,
1.723384895359418E+009,-9.373517036437988E-001,-2.314266413450241E-001,-5.142229422926903E-002,1.271538287401199E-001,
1.727934485896269E+009,-9.387807846069336E-001,-2.242622077465057E-001,-5.032503604888916E-002,1.272635012865067E-001,
1.732484076433121E+009,-9.399417638778687E-001,-2.159407585859299E-001,-5.026652663946152E-002,1.280172467231751E-001,
1.737033666969973E+009,-9.409223198890686E-001,-2.077941745519638E-001,-4.803448915481567E-002,1.278773248195648E-001,
1.741583257506825E+009,-9.416890740394592E-001,-2.007916271686554E-001,-4.838445782661438E-002,1.300232857465744E-001,
1.746132848043676E+009,-9.426348209381104E-001,-1.931469291448593E-001,-4.698487743735313E-002,1.330991089344025E-001,
