% Version 1.00
%
%freq[Hz],re:Trc13_S21,im:Trc13_S21,re:Trc14_S11,im:Trc14_S11,
1.000000000000000E+009,-1.281500160694122E-001,-9.731255769729614E-001,-1.017246991395950E-001,8.063125424087048E-004,
1.004549590536852E+009,-1.362139284610748E-001,-9.720935821533203E-001,-1.017624363303185E-001,3.518469864502549E-003,
1.009099181073703E+009,-1.441226303577423E-001,-9.708312153816223E-001,-1.001445576548576E-001,2.928961766883731E-003,
1.013648771610555E+009,-1.516015976667404E-001,-9.698433279991150E-001,-9.998226910829544E-002,3.414400154724717E-003,
1.018198362147407E+009,-1.591719686985016E-001,-9.680474996566773E-001,-1.000859215855598E-001,3.532919101417065E-003,
1.022747952684259E+009,-1.671966761350632E-001,-9.666668772697449E-001,-1.001926138997078E-001,2.776117762550712E-003,
1.027297543221110E+009,-1.749124377965927E-001,-9.651730656623840E-001,-9.938660264015198E-002,5.664782132953405E-003,
1.031847133757962E+009,-1.821593791246414E-001,-9.631758332252502E-001,-9.919545054435730E-002,4.949264694005251E-003,
1.036396724294814E+009,-1.905643641948700E-001,-9.607837796211243E-001,-9.819579124450684E-002,4.131292924284935E-003,
1.040946314831665E+009,-1.981174945831299E-001,-9.592461585998535E-001,-1.005830317735672E-001,5.409795790910721E-003,
1.045495905368517E+009,-2.056505382061005E-001,-9.575904607772827E-001,-1.016743779182434E-001,5.231736227869988E-003,
1.050045495905369E+009,-2.135846018791199E-001,-9.556758403778076E-001,-9.879497438669205E-002,5.783532280474901E-003,
1.054595086442220E+009,-2.216142863035202E-001,-9.539610743522644E-001,-1.006586924195290E-001,5.681133363395929E-003,
1.059144676979072E+009,-2.286835014820099E-001,-9.520730972290039E-001,-9.985988587141037E-002,7.574270479381084E-003,
1.063694267515924E+009,-2.363482117652893E-001,-9.501069784164429E-001,-1.006014049053192E-001,9.022188372910023E-003,
1.068243858052775E+009,-2.438450455665588E-001,-9.483802318572998E-001,-9.841357171535492E-002,9.672736749053001E-003,
1.072793448589627E+009,-2.513955533504486E-001,-9.457415938377380E-001,-9.877047687768936E-002,1.175467669963837E-002,
1.077343039126479E+009,-2.595447003841400E-001,-9.441582560539246E-001,-9.768911451101303E-002,1.255754940211773E-002,
1.081892629663330E+009,-2.666334807872772E-001,-9.420473575592041E-001,-9.809775650501251E-002,1.340031903237104E-002,
1.086442220200182E+009,-2.754851281642914E-001,-9.402359724044800E-001,-9.720305353403091E-002,1.365074235945940E-002,
1.090991810737034E+009,-2.834282219409943E-001,-9.377508163452148E-001,-9.541365504264832E-002,1.433832105249167E-002,
1.095541401273885E+009,-2.914136946201325E-001,-9.358488321304321E-001,-9.499799460172653E-002,1.480064820498228E-002,
1.100090991810737E+009,-3.000141978263855E-001,-9.331604242324829E-001,-9.400661289691925E-002,1.505674794316292E-002,
1.104640582347589E+009,-3.080112934112549E-001,-9.296160936355591E-001,-9.318917244672775E-002,1.656496524810791E-002,
1.109190172884440E+009,-3.162842988967896E-001,-9.271840453147888E-001,-9.244818240404129E-002,1.593918167054653E-002,
1.113739763421292E+009,-3.241737186908722E-001,-9.240581989288330E-001,-9.196316450834274E-002,1.687223836779594E-002,
1.118289353958144E+009,-3.323239684104919E-001,-9.214444756507874E-001,-9.072651714086533E-002,1.937558129429817E-002,
1.122838944494995E+009,-3.403448164463043E-001,-9.183531403541565E-001,-8.970491588115692E-002,1.896702684462071E-002,
1.127388535031847E+009,-3.490038216114044E-001,-9.158633947372437E-001,-8.621014654636383E-002,1.981222070753574E-002,
1.131938125568699E+009,-3.577065467834473E-001,-9.124665260314941E-001,-8.824738115072250E-002,2.212605252861977E-002,
1.136487716105551E+009,-3.673175573348999E-001,-9.090882539749146E-001,-8.523295819759369E-002,2.230634354054928E-002,
1.141037306642402E+009,-3.757990002632141E-001,-9.057960510253906E-001,-8.104712516069412E-002,2.261574566364288E-002,
1.145586897179254E+009,-3.847356736660004E-001,-9.015054106712341E-001,-8.008276671171188E-002,2.405255660414696E-002,
1.150136487716106E+009,-3.944045305252075E-001,-8.972092270851135E-001,-7.618033140897751E-002,2.406973019242287E-002,
1.154686078252957E+009,-4.043740928173065E-001,-8.927323222160339E-001,-7.300058752298355E-002,2.265628054738045E-002,
1.159235668789809E+009,-4.134348034858704E-001,-8.884696364402771E-001,-6.865333765745163E-002,2.232546173036099E-002,
1.163785259326661E+009,-4.238360822200775E-001,-8.837833404541016E-001,-6.548103690147400E-002,2.028754167258740E-002,
1.168334849863512E+009,-4.344611763954163E-001,-8.786825537681580E-001,-6.021064147353172E-002,1.810625754296780E-002,
1.172884440400364E+009,-4.460197389125824E-001,-8.736922144889832E-001,-5.479136854410172E-002,1.699951291084290E-002,
1.177434030937216E+009,-4.583398997783661E-001,-8.670133352279663E-001,-5.095565691590309E-002,1.541671995073557E-002,
1.181983621474067E+009,-4.704324007034302E-001,-8.601915836334229E-001,-4.481938481330872E-002,1.289361063390970E-002,
1.186533212010919E+009,-4.835777878761292E-001,-8.524580001831055E-001,-3.915435075759888E-002,8.826959878206253E-003,
1.191082802547771E+009,-4.985608160495758E-001,-8.430666327476502E-001,-2.983881346881390E-002,4.168109036982060E-003,
1.195632393084622E+009,-5.149310827255249E-001,-8.323116302490234E-001,-2.248331718146801E-002,-1.816354459151626E-003,
1.200181983621474E+009,-5.328617691993713E-001,-8.185234665870667E-001,-6.161426659673452E-003,-1.000616699457169E-002,
1.204731574158326E+009,-5.544825792312622E-001,-8.007497787475586E-001,9.692140854895115E-003,-2.190826088190079E-002,
1.209281164695178E+009,-5.797745585441589E-001,-7.758638858795166E-001,3.031713888049126E-002,-3.968675807118416E-002,
1.213830755232029E+009,-6.101880073547363E-001,-7.391344308853149E-001,5.720515549182892E-002,-6.795391440391541E-002,
1.218380345768881E+009,-6.456459164619446E-001,-6.775013804435730E-001,9.041257202625275E-002,-1.216411814093590E-001,
1.222929936305733E+009,-6.720132827758789E-001,-5.626373291015625E-001,1.256206631660461E-001,-2.311931103467941E-001,
1.227479526842584E+009,-6.086071729660034E-001,-3.521871268749237E-001,7.642403244972229E-002,-4.436190426349640E-001,
1.232029117379436E+009,-2.414004802703857E-001,-2.456122934818268E-001,-2.845257818698883E-001,-5.847991704940796E-001,
1.236578707916287E+009,-3.322668001055718E-002,-5.660269260406494E-001,-5.318593382835388E-001,-2.848869562149048E-001,
1.241128298453139E+009,-1.228861510753632E-001,-7.657468318939209E-001,-4.719530344009399E-001,-7.205373048782349E-002,
1.245677888989991E+009,-2.173461019992828E-001,-8.319250941276550E-001,-3.900981247425079E-001,1.004609651863575E-002,
1.250227479526843E+009,-2.838050425052643E-001,-8.526486158370972E-001,-3.329164981842041E-001,4.187524691224098E-002,
1.254777070063694E+009,-3.305023312568665E-001,-8.581702709197998E-001,-2.935153841972351E-001,5.698722228407860E-002,
1.259326660600546E+009,-3.651725053787231E-001,-8.581759929656982E-001,-2.641206085681915E-001,6.441779434680939E-002,
1.263876251137398E+009,-3.920676708221436E-001,-8.549385666847229E-001,-2.441506534814835E-001,6.878301501274109E-002,
1.268425841674249E+009,-4.146069884300232E-001,-8.507144451141357E-001,-2.281573861837387E-001,7.031149417161942E-002,
1.272975432211101E+009,-4.332200586795807E-001,-8.455730080604553E-001,-2.160373926162720E-001,7.210318744182587E-002,
1.277525022747953E+009,-4.493061304092407E-001,-8.411274552345276E-001,-2.057377099990845E-001,7.417916506528854E-002,
1.282074613284804E+009,-4.635260403156281E-001,-8.363263010978699E-001,-1.979801803827286E-001,7.365578413009644E-002,
1.286624203821656E+009,-4.766309857368469E-001,-8.316572904586792E-001,-1.902077347040176E-001,7.667571306228638E-002,
1.291173794358508E+009,-4.885718822479248E-001,-8.264970779418945E-001,-1.834001541137695E-001,7.700158655643463E-002,
1.295723384895360E+009,-4.998906552791596E-001,-8.209452629089356E-001,-1.792904138565064E-001,7.791998237371445E-002,
1.300272975432211E+009,-5.103572010993958E-001,-8.159418106079102E-001,-1.728010922670364E-001,7.890370488166809E-002,
1.304822565969063E+009,-5.203152298927307E-001,-8.103317618370056E-001,-1.688203364610672E-001,7.747902721166611E-002,
1.309372156505914E+009,-5.292560458183289E-001,-8.046833276748657E-001,-1.643802374601364E-001,7.880979776382446E-002,
1.313921747042766E+009,-5.381165742874146E-001,-7.989578843116760E-001,-1.598898023366928E-001,7.894359529018402E-002,
1.318471337579618E+009,-5.470483899116516E-001,-7.926972508430481E-001,-1.571198254823685E-001,7.804749161005020E-002,
1.323020928116470E+009,-5.546685457229614E-001,-7.878112792968750E-001,-1.529629826545715E-001,7.788524776697159E-002,
1.327570518653321E+009,-5.618901848793030E-001,-7.818673849105835E-001,-1.517197787761688E-001,7.896210998296738E-002,
1.332120109190173E+009,-5.700079798698425E-001,-7.762549519538879E-001,-1.481335610151291E-001,7.841491699218750E-002,
1.336669699727025E+009,-5.772817134857178E-001,-7.710295915603638E-001,-1.456954926252365E-001,7.863206416368485E-002,
1.341219290263876E+009,-5.836466550827026E-001,-7.649015188217163E-001,-1.438445597887039E-001,7.905487716197968E-002,
1.345768880800728E+009,-5.893755555152893E-001,-7.596944570541382E-001,-1.426164656877518E-001,7.724437117576599E-002,
1.350318471337580E+009,-5.961061120033264E-001,-7.541454434394836E-001,-1.421525925397873E-001,7.597426325082779E-002,
1.354868061874431E+009,-6.018753647804260E-001,-7.488828301429749E-001,-1.429829895496368E-001,7.781865447759628E-002,
1.359417652411283E+009,-6.075611710548401E-001,-7.446061968803406E-001,-1.413820981979370E-001,7.877553999423981E-002,
1.363967242948135E+009,-6.139103174209595E-001,-7.400563359260559E-001,-1.424481123685837E-001,8.125007152557373E-002,
1.368516833484986E+009,-6.201373338699341E-001,-7.363685965538025E-001,-1.404012590646744E-001,8.242636173963547E-002,
1.373066424021838E+009,-6.270419359207153E-001,-7.320271730422974E-001,-1.385229080915451E-001,8.428093791007996E-002,
1.377616014558690E+009,-6.337848901748657E-001,-7.271445393562317E-001,-1.384630352258682E-001,8.444077521562576E-002,
1.382165605095542E+009,-6.397743225097656E-001,-7.220822572708130E-001,-1.373695582151413E-001,8.781014382839203E-002,
1.386715195632393E+009,-6.465727686882019E-001,-7.164264321327210E-001,-1.351265013217926E-001,8.961648494005203E-002,
1.391264786169245E+009,-6.528185606002808E-001,-7.111179828643799E-001,-1.331420540809631E-001,8.908367902040482E-002,
1.395814376706096E+009,-6.588005423545837E-001,-7.061978578567505E-001,-1.307417303323746E-001,9.175360947847366E-002,
1.400363967242948E+009,-6.647049188613892E-001,-7.006591558456421E-001,-1.300743371248245E-001,9.198433160781860E-002,
1.404913557779800E+009,-6.709346175193787E-001,-6.953552961349487E-001,-1.279371976852417E-001,9.211821854114533E-002,
1.409463148316652E+009,-6.765219569206238E-001,-6.894008517265320E-001,-1.248235255479813E-001,9.229891747236252E-002,
1.414012738853503E+009,-6.828722953796387E-001,-6.842450499534607E-001,-1.243773996829987E-001,9.100414067506790E-002,
1.418562329390355E+009,-6.883545517921448E-001,-6.783447861671448E-001,-1.236794814467430E-001,9.316429495811462E-002,
1.423111919927207E+009,-6.943268179893494E-001,-6.719753742218018E-001,-1.249380335211754E-001,9.228518605232239E-002,
1.427661510464058E+009,-6.996322274208069E-001,-6.665144562721252E-001,-1.229726374149323E-001,9.181884676218033E-002,
1.432211101000910E+009,-7.048275470733643E-001,-6.609244942665100E-001,-1.218547150492668E-001,9.372248500585556E-002,
1.436760691537762E+009,-7.103475332260132E-001,-6.547841429710388E-001,-1.227389350533485E-001,9.605343639850617E-002,
1.441310282074613E+009,-7.157111167907715E-001,-6.490896940231323E-001,-1.204050257802010E-001,9.692935645580292E-002,
1.445859872611465E+009,-7.209793329238892E-001,-6.430215239524841E-001,-1.205258369445801E-001,9.738029539585114E-002,
1.450409463148317E+009,-7.261839509010315E-001,-6.375901103019714E-001,-1.199878230690956E-001,9.736366569995880E-002,
1.454959053685168E+009,-7.313059568405151E-001,-6.323916316032410E-001,-1.170332282781601E-001,9.891474246978760E-002,
1.459508644222020E+009,-7.364752888679504E-001,-6.263166069984436E-001,-1.175607442855835E-001,9.949262440204620E-002,
1.464058234758872E+009,-7.415538430213928E-001,-6.204727888107300E-001,-1.163592711091042E-001,9.915269166231155E-002,
1.468607825295723E+009,-7.464963793754578E-001,-6.143196225166321E-001,-1.147253885865212E-001,1.006413847208023E-001,
1.473157415832575E+009,-7.512642741203308E-001,-6.085307002067566E-001,-1.116200089454651E-001,1.024077981710434E-001,
1.477707006369427E+009,-7.557131648063660E-001,-6.024928689002991E-001,-1.120460927486420E-001,1.044429168105125E-001,
1.482256596906279E+009,-7.609332203865051E-001,-5.965228080749512E-001,-1.103857308626175E-001,1.058322638273239E-001,
1.486806187443130E+009,-7.653496861457825E-001,-5.909161567687988E-001,-1.094918102025986E-001,1.038171425461769E-001,
1.491355777979982E+009,-7.703477740287781E-001,-5.848073363304138E-001,-1.084930151700974E-001,1.050593554973602E-001,
1.495905368516834E+009,-7.751209735870361E-001,-5.785777568817139E-001,-1.085942760109901E-001,1.070914864540100E-001,
1.500454959053685E+009,-7.796248197555542E-001,-5.719282031059265E-001,-1.063479185104370E-001,1.074604764580727E-001,
1.505004549590537E+009,-7.838951349258423E-001,-5.660954713821411E-001,-1.039482057094574E-001,1.092715710401535E-001,
1.509554140127389E+009,-7.882643938064575E-001,-5.600546598434448E-001,-1.037826389074326E-001,1.094045192003250E-001,
1.514103730664240E+009,-7.928301692008972E-001,-5.533468723297119E-001,-1.050026640295982E-001,1.109905168414116E-001,
1.518653321201092E+009,-7.980175018310547E-001,-5.472923517227173E-001,-1.012976765632629E-001,1.121560558676720E-001,
1.523202911737944E+009,-8.019267916679382E-001,-5.411965847015381E-001,-1.009130850434303E-001,1.138901039958000E-001,
1.527752502274795E+009,-8.062068223953247E-001,-5.345352888107300E-001,-9.939949214458466E-002,1.145907938480377E-001,
1.532302092811647E+009,-8.100739121437073E-001,-5.282843112945557E-001,-9.906829893589020E-002,1.141371577978134E-001,
1.536851683348499E+009,-8.143515586853027E-001,-5.218104720115662E-001,-9.651711583137512E-002,1.151586771011353E-001,
1.541401273885350E+009,-8.185566663742065E-001,-5.157557725906372E-001,-9.475736320018768E-002,1.146850287914276E-001,
1.545950864422202E+009,-8.226031661033630E-001,-5.093247294425964E-001,-9.296797960996628E-002,1.145687699317932E-001,
1.550500454959054E+009,-8.266376852989197E-001,-5.026599168777466E-001,-9.200946241617203E-002,1.154359877109528E-001,
1.555050045495905E+009,-8.302217125892639E-001,-4.961324334144592E-001,-9.099421650171280E-002,1.162106841802597E-001,
1.559599636032757E+009,-8.343780040740967E-001,-4.896427989006043E-001,-8.886854350566864E-002,1.144987419247627E-001,
1.564149226569609E+009,-8.383283019065857E-001,-4.829235672950745E-001,-8.756786584854126E-002,1.151749119162560E-001,
1.568698817106461E+009,-8.424626588821411E-001,-4.764635860919952E-001,-8.877865970134735E-002,1.149691417813301E-001,
1.573248407643312E+009,-8.456434607505798E-001,-4.692262113094330E-001,-8.751823008060455E-002,1.159626394510269E-001,
1.577797998180164E+009,-8.494115471839905E-001,-4.626834988594055E-001,-8.535419404506683E-002,1.152483150362968E-001,
1.582347588717016E+009,-8.535128235816956E-001,-4.555435478687286E-001,-8.734401315450668E-002,1.167523413896561E-001,
1.586897179253867E+009,-8.570793867111206E-001,-4.490058124065399E-001,-8.343306928873062E-002,1.164332553744316E-001,
1.591446769790719E+009,-8.606533408164978E-001,-4.423998594284058E-001,-8.420575410127640E-002,1.182770878076553E-001,
1.595996360327570E+009,-8.638338446617127E-001,-4.358420670032501E-001,-8.298590779304504E-002,1.177699938416481E-001,
1.600545950864422E+009,-8.678103089332581E-001,-4.287315309047699E-001,-8.106946200132370E-002,1.197943016886711E-001,
1.605095541401274E+009,-8.706187009811401E-001,-4.217742383480072E-001,-7.986932992935181E-002,1.205196455121040E-001,
1.609645131938126E+009,-8.741835355758667E-001,-4.151200652122498E-001,-7.899422198534012E-002,1.199440285563469E-001,
1.614194722474977E+009,-8.772646784782410E-001,-4.078936576843262E-001,-7.750742882490158E-002,1.225842833518982E-001,
1.618744313011829E+009,-8.798044323921204E-001,-4.009094238281250E-001,-7.530111819505692E-002,1.218465268611908E-001,
1.623293903548681E+009,-8.829405903816223E-001,-3.941319882869721E-001,-7.320722192525864E-002,1.214118525385857E-001,
1.627843494085532E+009,-8.856669664382935E-001,-3.870864510536194E-001,-7.206839323043823E-002,1.225730329751968E-001,
1.632393084622384E+009,-8.879115581512451E-001,-3.799585998058319E-001,-7.004096359014511E-002,1.232176572084427E-001,
1.636942675159236E+009,-8.915867805480957E-001,-3.735984861850739E-001,-6.863031536340714E-002,1.228514835238457E-001,
1.641492265696087E+009,-8.943606615066528E-001,-3.662741780281067E-001,-6.967712938785553E-002,1.224713921546936E-001,
1.646041856232939E+009,-8.977268338203430E-001,-3.593675494194031E-001,-6.822441518306732E-002,1.232220679521561E-001,
1.650591446769791E+009,-9.002987742424011E-001,-3.525031208992004E-001,-6.666503846645355E-002,1.256566643714905E-001,
1.655141037306643E+009,-9.029441475868225E-001,-3.454873859882355E-001,-6.537756323814392E-002,1.242210790514946E-001,
1.659690627843494E+009,-9.057378768920898E-001,-3.375598788261414E-001,-6.673531979322434E-002,1.237077489495277E-001,
1.664240218380346E+009,-9.081746935844421E-001,-3.305040895938873E-001,-6.326392292976379E-002,1.250184476375580E-001,
1.668789808917198E+009,-9.106817245483398E-001,-3.235050439834595E-001,-6.448285281658173E-002,1.252428740262985E-001,
1.673339399454049E+009,-9.135010242462158E-001,-3.166795372962952E-001,-6.339558959007263E-002,1.260649859905243E-001,
1.677888989990901E+009,-9.161775708198547E-001,-3.084949553012848E-001,-6.265057623386383E-002,1.251667290925980E-001,
1.682438580527752E+009,-9.190288186073303E-001,-3.019911050796509E-001,-5.944688618183136E-002,1.260486841201782E-001,
1.686988171064604E+009,-9.212350249290466E-001,-2.943787276744843E-001,-5.827037245035172E-002,1.266609877347946E-001,
1.691537761601456E+009,-9.232499003410339E-001,-2.870473563671112E-001,-5.768383294343948E-002,1.281987130641937E-001,
1.696087352138308E+009,-9.252787828445435E-001,-2.793737649917603E-001,-5.690001323819161E-002,1.275172382593155E-001,
1.700636942675160E+009,-9.272614121437073E-001,-2.715231478214264E-001,-5.562179535627365E-002,1.277467608451843E-001,
1.705186533212011E+009,-9.292529225349426E-001,-2.637712359428406E-001,-5.424280837178230E-002,1.264342218637466E-001,
1.709736123748863E+009,-9.308651089668274E-001,-2.563192248344421E-001,-5.214994028210640E-002,1.279025077819824E-001,
1.714285714285714E+009,-9.330675005912781E-001,-2.488610297441483E-001,-5.280270427465439E-002,1.265288740396500E-001,
1.718835304822566E+009,-9.351304769515991E-001,-2.413719743490219E-001,-5.253005772829056E-002,1.243809089064598E-001,
1.723384895359418E+009,-9.368820786476135E-001,-2.335255742073059E-001,-5.049179866909981E-002,1.271650791168213E-001,
1.727934485896269E+009,-9.385263919830322E-001,-2.268234491348267E-001,-4.902481287717819E-002,1.269147545099258E-001,
1.732484076433121E+009,-9.398368000984192E-001,-2.187618464231491E-001,-4.884770512580872E-002,1.271183639764786E-001,
1.737033666969973E+009,-9.410855174064636E-001,-2.105402648448944E-001,-4.647335782647133E-002,1.266313046216965E-001,
1.741583257506825E+009,-9.421437382698059E-001,-2.034517973661423E-001,-4.676469787955284E-002,1.281508356332779E-001,
1.746132848043676E+009,-9.437292814254761E-001,-1.957748085260391E-001,-4.548469185829163E-002,1.305194348096848E-001,
