% Version 1.00
%
%freq[Hz],re:Trc13_S21,im:Trc13_S21,re:Trc14_S11,im:Trc14_S11,
1.000000000000000E+009,-1.289534922602299E-001,-9.729546754243091E-001,-9.900513759479360E-002,2.889286517426828E-002,
1.005000000000000E+009,-1.380359194606870E-001,-9.715434076124261E-001,-9.809167021707191E-002,3.012553084995215E-002,
1.010000000000000E+009,-1.467627150580342E-001,-9.695002945550014E-001,-9.726468305936699E-002,2.988966931335455E-002,
1.015000000000000E+009,-1.552801716396042E-001,-9.674652442088120E-001,-9.693108831802472E-002,3.175096386399344E-002,
1.020000000000000E+009,-1.636234047912803E-001,-9.649971042990420E-001,-9.656852118149417E-002,3.293463489634464E-002,
1.025000000000000E+009,-1.714297637707325E-001,-9.623631938884847E-001,-9.436209517386804E-002,3.451991551731300E-002,
1.030000000000000E+009,-1.790322817973589E-001,-9.602441310530741E-001,-9.435136941950345E-002,3.671106981324033E-002,
1.035000000000000E+009,-1.867176689967064E-001,-9.583410488507330E-001,-9.280751889649444E-002,3.844976088241925E-002,
1.040000000000000E+009,-1.940500047560511E-001,-9.568312097845697E-001,-9.146352902382254E-002,3.971082004273378E-002,
1.045000000000000E+009,-2.016271398235257E-001,-9.556604241837248E-001,-8.995844921066265E-002,4.245992646784449E-002,
1.050000000000000E+009,-2.099885753015899E-001,-9.543672469638713E-001,-8.847956994445917E-002,4.533902553431711E-002,
1.055000000000000E+009,-2.187244345332650E-001,-9.531509052896472E-001,-8.519261482363903E-002,4.629293649790657E-002,
1.060000000000000E+009,-2.279151352676702E-001,-9.514424662329053E-001,-8.212944038844142E-002,4.817833423334483E-002,
1.065000000000000E+009,-2.373000326657931E-001,-9.499636484624366E-001,-7.969206785683983E-002,4.920255188701873E-002,
1.070000000000000E+009,-2.472598028381631E-001,-9.479080545121243E-001,-7.610618108934278E-002,4.901957678731621E-002,
1.075000000000000E+009,-2.570847975444279E-001,-9.455051292899031E-001,-7.345812986168504E-002,4.898775387522907E-002,
1.080000000000000E+009,-2.672920033508588E-001,-9.427952944229252E-001,-7.236464783467046E-002,4.773483834673913E-002,
1.085000000000000E+009,-2.777515421584845E-001,-9.399916548156202E-001,-6.970536855927106E-002,4.704578708566339E-002,
1.090000000000000E+009,-2.875314980657541E-001,-9.368758770272327E-001,-6.835340819876777E-002,4.554021283273316E-002,
1.095000000000000E+009,-2.977174888782525E-001,-9.336473611999764E-001,-6.723718596813338E-002,4.398033909308809E-002,
1.100000000000000E+009,-3.078262271764599E-001,-9.297598418758248E-001,-6.668575963089540E-002,4.241206261499446E-002,
1.105000000000000E+009,-3.181503209069402E-001,-9.262969806784265E-001,-6.589518834531567E-002,4.200218564409710E-002,
1.110000000000000E+009,-3.284152110003737E-001,-9.222696271341038E-001,-6.519551523839406E-002,4.119175853289706E-002,
1.115000000000000E+009,-3.390169838427874E-001,-9.180441599791254E-001,-6.409002348250628E-002,3.972009365784995E-002,
1.120000000000000E+009,-3.499028124183374E-001,-9.134310465022378E-001,-6.157574274014598E-002,4.061270957536277E-002,
1.125000000000000E+009,-3.613517795688198E-001,-9.093036886760963E-001,-5.959542940470450E-002,4.083903905534464E-002,
1.130000000000000E+009,-3.734274766089097E-001,-9.045924695881518E-001,-5.565702847518177E-002,4.183053052217708E-002,
1.135000000000000E+009,-3.863119200774857E-001,-8.990877683348347E-001,-4.939438563469083E-002,4.205446171668072E-002,
1.140000000000000E+009,-3.997790984812741E-001,-8.931315962726923E-001,-4.333191668183196E-002,4.176364918757198E-002,
1.145000000000000E+009,-4.148697682875695E-001,-8.861562155156290E-001,-3.423901399280399E-002,4.110860117720940E-002,
1.150000000000000E+009,-4.310245751658857E-001,-8.774336637442842E-001,-2.315822560919628E-002,3.802830594094969E-002,
1.155000000000000E+009,-4.499126821332132E-001,-8.671826125213060E-001,-8.931450488772258E-003,3.410298116728193E-002,
1.160000000000000E+009,-4.719847269193759E-001,-8.539498086319326E-001,8.949499135666721E-003,2.677560367043434E-002,
1.165000000000000E+009,-4.982364815924898E-001,-8.355473024811895E-001,3.100082116972357E-002,1.454702486715640E-002,
1.170000000000000E+009,-5.304947853625763E-001,-8.078900454924225E-001,6.098863562701901E-002,-7.155249047323513E-003,
1.175000000000000E+009,-5.706241248868660E-001,-7.621533147339280E-001,9.997937923116101E-002,-4.875210180126111E-002,
1.180000000000000E+009,-6.171989756936926E-001,-6.740952098158481E-001,1.481811005460627E-001,-1.324921972173720E-001,
1.185000000000000E+009,-6.259662757005745E-001,-4.821743434597703E-001,1.667165807514069E-001,-3.268784397266490E-001,
1.190000000000000E+009,-3.235322970464189E-001,-2.345797226044607E-001,-1.312699094950158E-001,-6.042075547761816E-001,
1.195000000000000E+009,2.297584693876525E-002,-5.414759928559714E-001,-5.204076551275622E-001,-3.127054815832653E-001,
1.200000000000000E+009,-6.567822376089121E-002,-7.871299625395074E-001,-4.558523717993093E-001,-4.771105316616863E-002,
1.205000000000000E+009,-1.696782261112520E-001,-8.601958534113836E-001,-3.621938771075713E-001,3.944835751536280E-002,
1.210000000000000E+009,-2.388607169035601E-001,-8.818606490767591E-001,-3.001533704841902E-001,7.129543228695827E-002,
1.215000000000000E+009,-2.865882212029957E-001,-8.874509226484154E-001,-2.600283160156117E-001,8.463468124518773E-002,
1.220000000000000E+009,-3.217304029182997E-001,-8.870162438589951E-001,-2.315736990526157E-001,8.989225041972786E-002,
1.225000000000000E+009,-3.493159834771862E-001,-8.839570781573419E-001,-2.117823175149236E-001,9.204398141611095E-002,
1.230000000000000E+009,-3.720753628728878E-001,-8.795282079877285E-001,-1.978358493333408E-001,9.400930915846449E-002,
1.235000000000000E+009,-3.912911196887320E-001,-8.746262057273081E-001,-1.856495625865997E-001,9.509978934593738E-002,
1.240000000000000E+009,-4.083432518639736E-001,-8.690640439322175E-001,-1.778614636904436E-001,9.485627175753837E-002,
1.245000000000000E+009,-4.236687910822236E-001,-8.641061664267283E-001,-1.693603483812469E-001,9.456273508114509E-002,
1.250000000000000E+009,-4.372498647079615E-001,-8.585748768272613E-001,-1.638408316169264E-001,9.531864208907218E-002,
1.255000000000000E+009,-4.498855427754844E-001,-8.533085771522093E-001,-1.597518222474632E-001,9.580362099690679E-002,
1.260000000000000E+009,-4.617392748629903E-001,-8.480664115769208E-001,-1.545107728741471E-001,9.611549490866242E-002,
1.265000000000000E+009,-4.725249081138542E-001,-8.426406804620725E-001,-1.516265770955875E-001,9.777981489533484E-002,
1.270000000000000E+009,-4.824609572449050E-001,-8.376779583526446E-001,-1.479438531585733E-001,9.972199931552815E-002,
1.275000000000000E+009,-4.919653447627696E-001,-8.323811165305819E-001,-1.438571879631537E-001,1.005594629463271E-001,
1.280000000000000E+009,-5.009646044024451E-001,-8.274915112606111E-001,-1.393569334282012E-001,1.032037796965303E-001,
1.285000000000000E+009,-5.094684011254604E-001,-8.225934871261560E-001,-1.351643153383732E-001,1.050070887466479E-001,
1.290000000000000E+009,-5.180640661688738E-001,-8.175046811976736E-001,-1.308352371725699E-001,1.070354397883500E-001,
1.295000000000000E+009,-5.262771113720544E-001,-8.122644880041201E-001,-1.267885951899349E-001,1.073096388609361E-001,
1.300000000000000E+009,-5.337576564567970E-001,-8.069876858954390E-001,-1.226873969594179E-001,1.096179541715620E-001,
1.305000000000000E+009,-5.413988186582375E-001,-8.019536852795233E-001,-1.177023917951479E-001,1.106332359926898E-001,
1.310000000000000E+009,-5.486575358857391E-001,-7.968791000253174E-001,-1.139661674075280E-001,1.115483108331057E-001,
1.315000000000000E+009,-5.559483766069916E-001,-7.921019066443886E-001,-1.098370160518357E-001,1.117791693402175E-001,
1.320000000000000E+009,-5.634444409259458E-001,-7.873925970390884E-001,-1.058564855455738E-001,1.120643354937300E-001,
1.325000000000000E+009,-5.709773841660696E-001,-7.826000620183301E-001,-1.029733465169472E-001,1.114104957614969E-001,
1.330000000000000E+009,-5.788170886479288E-001,-7.776002541894345E-001,-9.990089152913421E-002,1.115470602338465E-001,
1.335000000000000E+009,-5.858994265168421E-001,-7.722800863039252E-001,-9.848639526855187E-002,1.110566530515379E-001,
1.340000000000000E+009,-5.931426561089256E-001,-7.670845234485726E-001,-9.713559331241348E-002,1.105176156780895E-001,
1.345000000000000E+009,-6.000899346573951E-001,-7.617895430699343E-001,-9.584551012009854E-002,1.095819416617808E-001,
1.350000000000000E+009,-6.070274469320501E-001,-7.563543742614468E-001,-9.554853806504937E-002,1.090013438449638E-001,
1.355000000000000E+009,-6.138764051588125E-001,-7.511123130035377E-001,-9.439051817990032E-002,1.088750314392870E-001,
1.360000000000000E+009,-6.211549485966499E-001,-7.457105674132236E-001,-9.544692193292356E-002,1.080111995458121E-001,
1.365000000000000E+009,-6.281548448501247E-001,-7.402669701258914E-001,-9.513304333213876E-002,1.086336124572259E-001,
1.370000000000000E+009,-6.353232614562281E-001,-7.346459130567423E-001,-9.437071318577621E-002,1.099111532641709E-001,
1.375000000000000E+009,-6.421422290585320E-001,-7.287585308820934E-001,-9.379684429888455E-002,1.094131825624685E-001,
1.380000000000000E+009,-6.490885505153099E-001,-7.226900219260160E-001,-9.316418875843309E-002,1.108926590981749E-001,
1.385000000000000E+009,-6.558881810207294E-001,-7.159636219385482E-001,-9.238518479391565E-002,1.118748414922722E-001,
1.390000000000000E+009,-6.624648571965377E-001,-7.094429117547846E-001,-9.133453718407544E-002,1.124512553603169E-001,
1.395000000000000E+009,-6.690553821119589E-001,-7.029636573583544E-001,-8.942206973880928E-002,1.134075444616876E-001,
1.400000000000000E+009,-6.755512378272276E-001,-6.964328201019298E-001,-8.704002430363411E-002,1.143815077927767E-001,
1.405000000000000E+009,-6.821299471320187E-001,-6.897182665085784E-001,-8.541314699878327E-002,1.150216220084845E-001,
1.410000000000000E+009,-6.887361527195791E-001,-6.832250403064090E-001,-8.336336696328085E-002,1.158214531769597E-001,
1.415000000000000E+009,-6.950448514256489E-001,-6.767494225513390E-001,-8.175501133678151E-002,1.165740191498191E-001,
1.420000000000000E+009,-7.011842045654086E-001,-6.701935365614598E-001,-7.912508308216738E-002,1.180445690324747E-001,
1.425000000000000E+009,-7.076076690958790E-001,-6.635181472033644E-001,-7.699049888804982E-002,1.181805248622240E-001,
1.430000000000000E+009,-7.131308305986945E-001,-6.572689477190344E-001,-7.423022668044337E-002,1.189190527465053E-001,
1.435000000000000E+009,-7.186521422127276E-001,-6.502518745147204E-001,-7.250411036508708E-002,1.202778774922700E-001,
1.440000000000000E+009,-7.245142597633359E-001,-6.443160771539120E-001,-6.943151118334001E-002,1.216036563514013E-001,
1.445000000000000E+009,-7.302683540973091E-001,-6.379753621739108E-001,-6.669006194074094E-002,1.222600035812750E-001,
1.450000000000000E+009,-7.361069898417041E-001,-6.315688435502453E-001,-6.417686178983373E-002,1.229972657226249E-001,
1.455000000000000E+009,-7.418698112609791E-001,-6.252609138535411E-001,-6.140767594908246E-002,1.231737491876132E-001,
1.460000000000000E+009,-7.474079788839980E-001,-6.188269473801755E-001,-5.953876864863717E-002,1.217021877467675E-001,
1.465000000000000E+009,-7.522884017828040E-001,-6.125616693761951E-001,-5.728881558873867E-002,1.222567267191753E-001,
1.470000000000000E+009,-7.575110286470129E-001,-6.061376270205079E-001,-5.623035983822149E-002,1.215026296411189E-001,
1.475000000000000E+009,-7.628781593670408E-001,-5.995673413731615E-001,-5.518089341743029E-002,1.208039252945783E-001,
1.480000000000000E+009,-7.682973391188337E-001,-5.929944414470417E-001,-5.437841698961465E-002,1.192142563012443E-001,
1.485000000000000E+009,-7.734919219766765E-001,-5.858534622772952E-001,-5.428518033269204E-002,1.183144419883545E-001,
1.490000000000000E+009,-7.787556536917260E-001,-5.793229001362050E-001,-5.440097724293732E-002,1.169942178248002E-001,
1.495000000000000E+009,-7.837234805801948E-001,-5.723451020853450E-001,-5.547229327560318E-002,1.170001602818274E-001,
1.500000000000000E+009,-7.888874910905288E-001,-5.655462387412293E-001,-5.548539650591294E-002,1.163974440208054E-001,
1.505000000000000E+009,-7.939901201161602E-001,-5.588255089267997E-001,-5.526925680137396E-002,1.165340147979682E-001,
1.510000000000000E+009,-7.991358468604785E-001,-5.519090287461929E-001,-5.538691816658471E-002,1.172713875119847E-001,
1.515000000000000E+009,-8.038692702090482E-001,-5.448885958897825E-001,-5.551292920459962E-002,1.188656355335025E-001,
1.520000000000000E+009,-8.087698220372067E-001,-5.378888445432243E-001,-5.451210384727598E-002,1.193776535500822E-001,
1.525000000000000E+009,-8.132505925804554E-001,-5.311712624911448E-001,-5.258663395249860E-002,1.202075293709789E-001,
1.530000000000000E+009,-8.175703360368645E-001,-5.238161311767956E-001,-5.192817158469257E-002,1.212470963859001E-001,
1.535000000000000E+009,-8.216495301307893E-001,-5.169606662479511E-001,-4.948964959654979E-002,1.216056910445469E-001,
1.540000000000000E+009,-8.254493368490675E-001,-5.098656323307120E-001,-4.672109228958904E-002,1.228184861393803E-001,
1.545000000000000E+009,-8.293382498693710E-001,-5.026199846777906E-001,-4.506650061372509E-002,1.222527674200871E-001,
1.550000000000000E+009,-8.331163235526495E-001,-4.955243596746987E-001,-4.215298342551745E-002,1.234853615865757E-001,
1.555000000000000E+009,-8.369318313824786E-001,-4.885793120705416E-001,-3.999208565677208E-002,1.232766908983187E-001,
1.560000000000000E+009,-8.410281744809250E-001,-4.813931064308842E-001,-3.623829242343046E-002,1.229046996278066E-001,
1.565000000000000E+009,-8.444059959593622E-001,-4.739977328598813E-001,-3.435824821513343E-002,1.236780683871844E-001,
1.570000000000000E+009,-8.479719946712359E-001,-4.666765663460993E-001,-3.220908246937682E-002,1.233926737890444E-001,
1.575000000000000E+009,-8.514388678526197E-001,-4.592765258418195E-001,-3.056886187669237E-002,1.235628090169370E-001,
1.580000000000000E+009,-8.547331627671213E-001,-4.520656921806433E-001,-3.022289382055221E-002,1.231103278650510E-001,
1.585000000000000E+009,-8.581293666191020E-001,-4.452289486586425E-001,-2.755292257158497E-002,1.238156209936194E-001,
1.590000000000000E+009,-8.614532611797616E-001,-4.384471281827358E-001,-2.639412086752169E-002,1.235308882743142E-001,
1.595000000000000E+009,-8.648969848455689E-001,-4.315574559376249E-001,-2.547332836268779E-002,1.238075106299116E-001,
1.600000000000000E+009,-8.685345164049811E-001,-4.250640117500251E-001,-2.440230211472524E-002,1.230904865291075E-001,
1.605000000000000E+009,-8.720443031610615E-001,-4.180781464169964E-001,-2.268619596255668E-002,1.242118746796368E-001,
1.610000000000000E+009,-8.758035361445413E-001,-4.107444633854629E-001,-2.201955120764525E-002,1.228876376172475E-001,
1.615000000000000E+009,-8.789820739734546E-001,-4.037049480139509E-001,-2.009272063217650E-002,1.230340079600077E-001,
1.620000000000000E+009,-8.821268761311516E-001,-3.964481017587350E-001,-1.937972929589931E-002,1.220513605380113E-001,
1.625000000000000E+009,-8.853165198570780E-001,-3.891647478209137E-001,-1.912313955265921E-002,1.201851375556505E-001,
1.630000000000000E+009,-8.882425045685243E-001,-3.815868639181460E-001,-1.893578091253468E-002,1.190049517158743E-001,
1.635000000000000E+009,-8.913659688223107E-001,-3.748077803623570E-001,-1.818873461486585E-002,1.182944675585737E-001,
1.640000000000000E+009,-8.945409693639923E-001,-3.672862185589508E-001,-1.910859361666971E-002,1.171340450309533E-001,
1.645000000000000E+009,-8.973037880410694E-001,-3.594811329254402E-001,-1.813422249711919E-002,1.164190952453448E-001,
1.650000000000000E+009,-9.002093656326707E-001,-3.519825369477396E-001,-1.862317528228413E-002,1.155089863316957E-001,
1.655000000000000E+009,-9.028846102618160E-001,-3.443300788508026E-001,-1.823982028217246E-002,1.154262326915390E-001,
1.660000000000000E+009,-9.053872760884025E-001,-3.367988087937022E-001,-1.746642190091281E-002,1.155561040873625E-001,
1.665000000000000E+009,-9.081595382531515E-001,-3.291806390580068E-001,-1.670947975583350E-002,1.165728343496584E-001,
1.670000000000000E+009,-9.115676745871526E-001,-3.213337366823045E-001,-1.598719629497250E-002,1.175757300839480E-001,
1.675000000000000E+009,-9.150268082771293E-001,-3.133036782812880E-001,-1.357323879241995E-002,1.180156716736066E-001,
1.680000000000000E+009,-9.181168143350715E-001,-3.055561474641249E-001,-1.080809413942462E-002,1.191919682143936E-001,
1.685000000000000E+009,-9.213934517756371E-001,-2.974809309030309E-001,-7.619696731351695E-003,1.195592364863913E-001,
1.690000000000000E+009,-9.239440042799909E-001,-2.890683594780366E-001,-5.113462415935261E-003,1.200967218037870E-001,
1.695000000000000E+009,-9.263617152925557E-001,-2.810498399994358E-001,-1.806670321346865E-003,1.193218292058893E-001,
1.700000000000000E+009,-9.283290183261286E-001,-2.728723249246859E-001,9.822304565903258E-004,1.181358989612783E-001,
1.705000000000000E+009,-9.299787224215310E-001,-2.647139555179563E-001,1.349460271217449E-003,1.176951933597895E-001,
1.710000000000000E+009,-9.318879455873765E-001,-2.568427065221289E-001,4.379345702832487E-003,1.164333490425481E-001,
1.715000000000000E+009,-9.338654037410956E-001,-2.487509697165735E-001,5.666617273693966E-003,1.147703012033830E-001,
1.720000000000000E+009,-9.358912582971716E-001,-2.410145714533476E-001,6.548298153093230E-003,1.138899514087000E-001,
1.725000000000000E+009,-9.372076520296264E-001,-2.332076597755026E-001,7.713184851102194E-003,1.127835812673808E-001,
1.730000000000000E+009,-9.386403367871787E-001,-2.257414773932238E-001,7.046282449040875E-003,1.119933001705194E-001,
1.735000000000000E+009,-9.405022388056695E-001,-2.182684898525288E-001,6.727009556624616E-003,1.108198538040745E-001,
1.740000000000000E+009,-9.423242808708893E-001,-2.107660126237386E-001,5.732409469193637E-003,1.108722015672033E-001,
1.745000000000000E+009,-9.444882881650687E-001,-2.031261816875095E-001,5.931504620929583E-003,1.105670708996813E-001,
1.750000000000000E+009,-9.464034735302036E-001,-1.954498876933626E-001,5.160980385177073E-003,1.096991934806551E-001,
1.755000000000000E+009,-9.485755959946558E-001,-1.876802373231982E-001,4.482783383388616E-003,1.093730801295081E-001,
1.760000000000000E+009,-9.507156726208423E-001,-1.797409219209753E-001,3.924498674612283E-003,1.089088068391518E-001,
1.765000000000000E+009,-9.525568678782492E-001,-1.717035906467749E-001,4.324067433055260E-003,1.094544219220930E-001,
1.770000000000000E+009,-9.543301363540364E-001,-1.631600049531798E-001,4.360631513166603E-003,1.094874096173263E-001,
1.775000000000000E+009,-9.559174079944117E-001,-1.545719455217213E-001,4.058126200233119E-003,1.101418502714554E-001,
1.780000000000000E+009,-9.574022443164364E-001,-1.460999707396190E-001,4.736200662483588E-003,1.092066740487920E-001,
1.785000000000000E+009,-9.585243511161670E-001,-1.375471995365951E-001,6.026591208353965E-003,1.084811091203140E-001,
1.790000000000000E+009,-9.598901094070627E-001,-1.293520455977938E-001,6.674043158871850E-003,1.088066213454321E-001,
1.795000000000000E+009,-9.612030923839739E-001,-1.211077283328192E-001,8.397147243842633E-003,1.093412973307816E-001,
1.800000000000000E+009,-9.621744094898579E-001,-1.127555421511705E-001,9.463123970848548E-003,1.091392218082908E-001,
1.805000000000000E+009,-9.626987564943823E-001,-1.044217153653596E-001,1.194850324497693E-002,1.094586215614192E-001,
1.810000000000000E+009,-9.636806176206089E-001,-9.560309557525913E-002,1.399498236287039E-002,1.096164590453070E-001,
1.815000000000000E+009,-9.643674457075460E-001,-8.724422578971072E-002,1.681593358056149E-002,1.093486627559710E-001,
1.820000000000000E+009,-9.646216449037828E-001,-7.904491518557366E-002,1.956778767017016E-002,1.096890852357873E-001,
1.825000000000000E+009,-9.654252120604404E-001,-7.045238490998934E-002,2.149672989989954E-002,1.091624260428235E-001,
