% Version 1.00
%
%freq[Hz],re:Trc13_S21,im:Trc13_S21,re:cap2_p2_0_1_plstc_S21,im:cap2_p2_0_1_plstc_S21,re:cap2_p2_1_plstc_S21,im:cap2_p2_1_plstc_S21,re:cap2_p2_0_5_plstc_S21,im:cap2_p2_0_5_plstc_S21,
1.000000000000000E+009,-1.312329760693623E-001,-9.758475858213670E-001,-9.091851566281120E-002,-9.787308047292347E-001,-9.144277856298616E-002,-9.780359541965743E-001,-9.189795643091202E-002,-9.780099654197694E-001,
1.005000000000000E+009,-1.423869368770240E-001,-9.740799639372917E-001,-9.951081999050482E-002,-9.777515437682892E-001,-1.000024384897190E-001,-9.770515583823929E-001,-1.004458436369896E-001,-9.770162343978883E-001,
1.010000000000000E+009,-1.534618152847299E-001,-9.717075766853979E-001,-1.076806894553462E-001,-9.762432421744507E-001,-1.082026552249754E-001,-9.754886186088962E-001,-1.086531350016594E-001,-9.754466319084169E-001,
1.015000000000000E+009,-1.648419431845919E-001,-9.691002485140633E-001,-1.156975184034756E-001,-9.746377073674207E-001,-1.162057303421372E-001,-9.738637538844236E-001,-1.166080173850060E-001,-9.738198232650759E-001,
1.020000000000000E+009,-1.766683795385372E-001,-9.658101123665751E-001,-1.236311895314920E-001,-9.726853207586599E-001,-1.240728191348839E-001,-9.718741171003378E-001,-1.245314121246338E-001,-9.718196249008180E-001,
1.025000000000000E+009,-1.886673105069524E-001,-9.621346437856181E-001,-1.309566632652265E-001,-9.705716455762766E-001,-1.314579672514035E-001,-9.698144496846064E-001,-1.318985599279404E-001,-9.697762942314149E-001,
1.030000000000000E+009,-2.014664494680233E-001,-9.583009976927379E-001,-1.381927733036722E-001,-9.686486228735260E-001,-1.385701568621349E-001,-9.679329991512962E-001,-1.390600264072418E-001,-9.678124928474429E-001,
1.035000000000000E+009,-2.154844738520875E-001,-9.539198082492157E-001,-1.453999619360129E-001,-9.670680158736202E-001,-1.457070290518669E-001,-9.662908365343511E-001,-1.461193138360977E-001,-9.662792992591860E-001,
1.040000000000000E+009,-2.306374038571595E-001,-9.490128190565293E-001,-1.520322246490139E-001,-9.657120412327975E-001,-1.523103958922710E-001,-9.649545363246911E-001,-1.527509152889252E-001,-9.649297595024109E-001,
1.045000000000000E+009,-2.482129282794398E-001,-9.427623733895707E-001,-1.586723983263895E-001,-9.647342464985002E-001,-1.589787459928057E-001,-9.639613476511344E-001,-1.593460214138031E-001,-9.639312195777896E-001,
1.050000000000000E+009,-2.698749090707139E-001,-9.339519912922830E-001,-1.659661375709263E-001,-9.637000971932113E-001,-1.662019725328868E-001,-9.629825164617973E-001,-1.666585063934327E-001,-9.629984855651858E-001,
1.055000000000000E+009,-2.965875333162295E-001,-9.204063049128992E-001,-1.735909221198032E-001,-9.630489687441672E-001,-1.737847180462275E-001,-9.622880327837976E-001,-1.742878443002701E-001,-9.622137284278871E-001,
1.060000000000000E+009,-3.309576492873451E-001,-8.966862294478217E-001,-1.815446508983721E-001,-9.619998216583177E-001,-1.818431259127150E-001,-9.612196810364831E-001,-1.822855246067048E-001,-9.611281275749207E-001,
1.065000000000000E+009,-3.753689821372086E-001,-8.513016073721019E-001,-1.897921381879651E-001,-9.611327299504131E-001,-1.900326236944184E-001,-9.603863773062047E-001,-1.904697519540787E-001,-9.602676248550417E-001,
1.070000000000000E+009,-4.202397544252516E-001,-7.487865296708562E-001,-1.985448204933420E-001,-9.598363703415800E-001,-1.988154189210391E-001,-9.590597861257225E-001,-1.993372780084610E-001,-9.589794516563416E-001,
1.075000000000000E+009,-3.535014798041968E-001,-5.375203639750968E-001,-2.071324911104751E-001,-9.582837474359598E-001,-2.074881443406272E-001,-9.574380021945940E-001,-2.079466027021408E-001,-9.574026608467103E-001,
1.080000000000000E+009,-1.978627963602563E-002,-5.353533830109649E-001,-2.160596772174840E-001,-9.563443732954731E-001,-2.163810826538145E-001,-9.555931706639097E-001,-2.168762856721878E-001,-9.554573822021486E-001,
1.085000000000000E+009,4.321650813307287E-002,-7.716427198655594E-001,-2.250029623104164E-001,-9.544415214285822E-001,-2.253067987870741E-001,-9.536936115825049E-001,-2.257959187030793E-001,-9.535519504547121E-001,
1.090000000000000E+009,-2.136631394314385E-002,-8.757784425780570E-001,-2.332900809003334E-001,-9.523152611402265E-001,-2.335832772175643E-001,-9.514672485774620E-001,-2.340998190641404E-001,-9.513320708274842E-001,
1.095000000000000E+009,-7.729479796773392E-002,-9.144993667395047E-001,-2.417164118726625E-001,-9.501172249000687E-001,-2.420480760848031E-001,-9.492498441985880E-001,-2.423888570070267E-001,-9.491050362586977E-001,
1.100000000000000E+009,-1.182568194305677E-001,-9.297918369387591E-001,-2.501236742399947E-001,-9.473928534957230E-001,-2.503645755215688E-001,-9.464692220726733E-001,-2.507598125934601E-001,-9.463710522651673E-001,
1.105000000000000E+009,-1.489988039368860E-001,-9.366450724456649E-001,-2.583194300525310E-001,-9.451161967061390E-001,-2.586208091489171E-001,-9.442461850119156E-001,-2.590129184722901E-001,-9.440894222259524E-001,
1.110000000000000E+009,-1.732390848706429E-001,-9.388298950133535E-001,-2.663535113132766E-001,-9.423117065199635E-001,-2.666035520873336E-001,-9.414400121769371E-001,-2.669641315937043E-001,-9.413334441184997E-001,
1.115000000000000E+009,-1.935728936762957E-001,-9.388767768002597E-001,-2.743318223394580E-001,-9.393506549079727E-001,-2.746427701279452E-001,-9.384613300213351E-001,-2.750143325328827E-001,-9.383902788162232E-001,
1.120000000000000E+009,-2.106766498828808E-001,-9.377606905262622E-001,-2.820414307643207E-001,-9.363016222778869E-001,-2.822521959490304E-001,-9.354770130497155E-001,-2.826674878597260E-001,-9.353815722465516E-001,
1.125000000000000E+009,-2.258040670215376E-001,-9.365270085756426E-001,-2.896927912254403E-001,-9.338681649393942E-001,-2.899516525380071E-001,-9.330943207497567E-001,-2.904218542575837E-001,-9.328762459754945E-001,
1.130000000000000E+009,-2.394857832656588E-001,-9.349434171190609E-001,-2.973040475466546E-001,-9.314923959653538E-001,-2.975753248382453E-001,-9.306935334637912E-001,-2.980626726150513E-001,-9.305771827697755E-001,
1.135000000000000E+009,-2.522943740805627E-001,-9.330544539631573E-001,-3.050580307146912E-001,-9.289918282693870E-001,-3.054302608822150E-001,-9.281506538866606E-001,-3.058370769023895E-001,-9.279893183708192E-001,
1.140000000000000E+009,-2.640810895189996E-001,-9.308846452942998E-001,-3.126317962119015E-001,-9.264118733833731E-001,-3.129995623737653E-001,-9.255554471658241E-001,-3.134330368041992E-001,-9.254339122772217E-001,
1.145000000000000E+009,-2.754288025133808E-001,-9.286706072026078E-001,-3.204814348878284E-001,-9.239418798061032E-001,-3.208506244611088E-001,-9.230390260289701E-001,-3.212456524372102E-001,-9.228699707984925E-001,
1.150000000000000E+009,-2.860440861074850E-001,-9.258549680294450E-001,-3.279923559529141E-001,-9.208450507697141E-001,-3.283850738554276E-001,-9.198631852430846E-001,-3.287403571605683E-001,-9.196903061866761E-001,
1.155000000000000E+009,-2.967859109138686E-001,-9.233316516695611E-001,-3.359699057450531E-001,-9.181667628798214E-001,-3.364180989495363E-001,-9.172068627083470E-001,-3.368273425102234E-001,-9.171045970916749E-001,
1.160000000000000E+009,-3.072812143823194E-001,-9.208693922469848E-001,-3.441863819286686E-001,-9.155091200055436E-001,-3.445597641512124E-001,-9.145785683754349E-001,-3.450226366519928E-001,-9.144158053398133E-001,
1.165000000000000E+009,-3.175406282696900E-001,-9.180121484538568E-001,-3.522770762384547E-001,-9.125599184856894E-001,-3.527483816305899E-001,-9.115723332979056E-001,-3.531181466579437E-001,-9.114714479446413E-001,
1.170000000000000E+009,-3.276387688125202E-001,-9.151519714250701E-001,-3.604996162798951E-001,-9.095655914295757E-001,-3.610543515319574E-001,-9.085861399011516E-001,-3.613899159431458E-001,-9.083755278587343E-001,
1.175000000000000E+009,-3.375444829886486E-001,-9.125208283867491E-001,-3.686413663975563E-001,-9.067713363194186E-001,-3.691794070659143E-001,-9.057661321208925E-001,-3.696123266220093E-001,-9.056569218635561E-001,
1.180000000000000E+009,-3.472338950678004E-001,-9.095514688282473E-001,-3.767652986071679E-001,-9.037441563410336E-001,-3.773143552519748E-001,-9.026803639615333E-001,-3.777166700363160E-001,-9.025536918640138E-001,
1.185000000000000E+009,-3.567365386696037E-001,-9.066484764194057E-001,-3.847960912611841E-001,-9.006914879864176E-001,-3.852895128585184E-001,-8.996619401252891E-001,-3.857555413246155E-001,-8.994636869430543E-001,
1.190000000000000E+009,-3.657081462910453E-001,-9.032424787802749E-001,-3.924087425656485E-001,-8.973199320380861E-001,-3.929202567978977E-001,-8.962251028510896E-001,-3.932962751388551E-001,-8.961173248291017E-001,
1.195000000000000E+009,-3.745368709446780E-001,-8.999320095041921E-001,-3.999914890447128E-001,-8.939787424507953E-001,-4.005412613094315E-001,-8.929137638712156E-001,-4.008918619155885E-001,-8.927530884742738E-001,
1.200000000000000E+009,-3.833466865603425E-001,-8.968533192157022E-001,-4.077344631992746E-001,-8.908351556738295E-001,-4.082408022444047E-001,-8.897676051988414E-001,-4.086693942546845E-001,-8.896335077285769E-001,
1.205000000000000E+009,-3.921760348854848E-001,-8.935765746477654E-001,-4.154525461749961E-001,-8.875577565524577E-001,-4.160433907260751E-001,-8.864787805510500E-001,-4.164691877365113E-001,-8.862999892234803E-001,
1.210000000000000E+009,-4.011513649084884E-001,-8.900038757417030E-001,-4.235265952470463E-001,-8.840532188799426E-001,-4.240392850200237E-001,-8.829247222223586E-001,-4.244986820220948E-001,-8.827161836624147E-001,
1.215000000000000E+009,-4.100016970538037E-001,-8.865196455319598E-001,-4.315869447338428E-001,-8.805256300271822E-001,-4.321204191423714E-001,-8.794226673095315E-001,-4.325456893444062E-001,-8.791759848594666E-001,
1.220000000000000E+009,-4.188344477163796E-001,-8.825636360391961E-001,-4.395041027073592E-001,-8.766201342018588E-001,-4.401135179108775E-001,-8.754867928339949E-001,-4.404868590831758E-001,-8.752363085746765E-001,
1.225000000000000E+009,-4.274966479409432E-001,-8.786076736312359E-001,-4.473862295084164E-001,-8.727288862445696E-001,-4.479826187922852E-001,-8.715559939853705E-001,-4.483814668655396E-001,-8.712775492668152E-001,
1.230000000000000E+009,-4.364772780488914E-001,-8.742887474395547E-001,-4.556634059523139E-001,-8.684352099741974E-001,-4.562800345166614E-001,-8.672782211459877E-001,-4.567042374610901E-001,-8.670519661903382E-001,
1.235000000000000E+009,-4.451408703752606E-001,-8.699402848806118E-001,-4.636808369967873E-001,-8.641023840890829E-001,-4.643132704019729E-001,-8.628861208670465E-001,-4.647041642665864E-001,-8.627074885368349E-001,
1.240000000000000E+009,-4.538775123446455E-001,-8.652953120561476E-001,-4.716828891790886E-001,-8.596462563996433E-001,-4.723487724789396E-001,-8.583761763732301E-001,-4.727587234973908E-001,-8.581708145141603E-001,
1.245000000000000E+009,-4.625330479257054E-001,-8.611484683255085E-001,-4.797682315741027E-001,-8.554534059952099E-001,-4.805023047025675E-001,-8.541873380881382E-001,-4.808861994743348E-001,-8.539947009086611E-001,
1.250000000000000E+009,-4.707700164280631E-001,-8.564480512991042E-001,-4.874039980086274E-001,-8.507521438488843E-001,-4.881733736885016E-001,-8.495458593042230E-001,-4.885593307018281E-001,-8.492930316925049E-001,
1.255000000000000E+009,-4.788829495681611E-001,-8.521331577476943E-001,-4.950005509484244E-001,-8.464655265906738E-001,-4.957878102066209E-001,-8.451970417324238E-001,-4.961354970932008E-001,-8.449585151672363E-001,
1.260000000000000E+009,-4.868187868043560E-001,-8.475207418915880E-001,-5.025267946065104E-001,-8.419456590995854E-001,-5.032616433084687E-001,-8.406766532221655E-001,-5.036528801918030E-001,-8.404633378982546E-001,
1.265000000000000E+009,-4.943580359176555E-001,-8.427491222214190E-001,-5.096714527545345E-001,-8.371941975559081E-001,-5.103562576196196E-001,-8.359560501310932E-001,-5.106862282752991E-001,-8.356954503059388E-001,
1.270000000000000E+009,-5.014424431540338E-001,-8.384864371202111E-001,-5.162449060683871E-001,-8.328558890540098E-001,-5.169869760666288E-001,-8.315969140310017E-001,-5.173176145553589E-001,-8.314168190956117E-001,
1.275000000000000E+009,-5.084290512097647E-001,-8.337744002791278E-001,-5.229051015903057E-001,-8.282223215132283E-001,-5.235164752804711E-001,-8.268737707568260E-001,-5.239301776885986E-001,-8.266247749328615E-001,
1.280000000000000E+009,-5.152756955742670E-001,-8.293714898020441E-001,-5.294188040989417E-001,-8.237836372851600E-001,-5.300196495727713E-001,-8.225532910186169E-001,-5.304151797294617E-001,-8.222837162017824E-001,
1.285000000000000E+009,-5.218489916990727E-001,-8.250032620198674E-001,-5.356397352634459E-001,-8.194502635762491E-001,-5.363228918376782E-001,-8.181646580576512E-001,-5.366282224655152E-001,-8.179556035995486E-001,
1.290000000000000E+009,-5.288410409304675E-001,-8.203472270205665E-001,-5.422997317328042E-001,-8.147221225554924E-001,-5.429207146006111E-001,-8.134484184224015E-001,-5.433558988571168E-001,-8.132021760940553E-001,
1.295000000000000E+009,-5.355923789741887E-001,-8.155457264702487E-001,-5.487401993047815E-001,-8.099727668766211E-001,-5.492967676939875E-001,-8.086592370612512E-001,-5.496115517616272E-001,-8.083637475967408E-001,
1.300000000000000E+009,-5.417808425536519E-001,-8.107022253896675E-001,-5.546553278971915E-001,-8.050876473267772E-001,-5.551612407707898E-001,-8.038061924269535E-001,-5.554804873466492E-001,-8.035437107086183E-001,
1.305000000000000E+009,-5.481943320240075E-001,-8.059439275560368E-001,-5.608607494961972E-001,-8.003005742454730E-001,-5.612428898335420E-001,-7.990140166139728E-001,-5.616720080375672E-001,-7.987419152259828E-001,
1.310000000000000E+009,-5.543140246971562E-001,-8.012579584136015E-001,-5.666673868133183E-001,-7.956597153856421E-001,-5.670951093595527E-001,-7.944266741208974E-001,-5.674216365814210E-001,-7.941515731811525E-001,
1.315000000000000E+009,-5.605880575570525E-001,-7.968936477476460E-001,-5.726692262171724E-001,-7.912027458229989E-001,-5.730271550562192E-001,-7.899422201791750E-001,-5.733463001251221E-001,-7.897012448310853E-001,
1.320000000000000E+009,-5.671066917273259E-001,-7.925045791456793E-001,-5.789083444084067E-001,-7.867978046194277E-001,-5.793156958621794E-001,-7.855981079578515E-001,-5.796877050399781E-001,-7.853523349761965E-001,
1.325000000000000E+009,-5.737367403460827E-001,-7.880406721151909E-001,-5.852387547108480E-001,-7.823807172342397E-001,-5.856389771538535E-001,-7.811509443262735E-001,-5.860868930816651E-001,-7.809290361404421E-001,
1.330000000000000E+009,-5.807354759583254E-001,-7.834746512753776E-001,-5.919837675014439E-001,-7.777871673212180E-001,-5.924007410746472E-001,-7.765712259868896E-001,-5.928265452384949E-001,-7.763367748260499E-001,
1.335000000000000E+009,-5.870475588359181E-001,-7.786131417136649E-001,-5.981188605146863E-001,-7.729863214292063E-001,-5.984586970756800E-001,-7.717168039123388E-001,-5.988723444938661E-001,-7.714830732345581E-001,
1.340000000000000E+009,-5.935689301971798E-001,-7.737906597957259E-001,-6.044344694068937E-001,-7.681620089400844E-001,-6.047449360765889E-001,-7.669450858366921E-001,-6.050441765785218E-001,-7.665809535980227E-001,
1.345000000000000E+009,-5.998983235339374E-001,-7.688373250235817E-001,-6.105795822773377E-001,-7.631799193650874E-001,-6.108638203921339E-001,-7.619517371174961E-001,-6.111700677871705E-001,-7.615720653533936E-001,
1.350000000000000E+009,-6.061686189825750E-001,-7.637429009786400E-001,-6.165694959568399E-001,-7.580865033331210E-001,-6.168868401520652E-001,-7.568969805116195E-001,-6.172076749801637E-001,-7.565658187866212E-001,
1.355000000000000E+009,-6.124747686528100E-001,-7.587583089062460E-001,-6.226863795207783E-001,-7.530326999735977E-001,-6.229239141824868E-001,-7.518671389622516E-001,-6.232487463951112E-001,-7.515875363349915E-001,
1.360000000000000E+009,-6.190454186006786E-001,-7.537683861700910E-001,-6.291195970402885E-001,-7.480359157547989E-001,-6.293663776181938E-001,-7.469579056825945E-001,-6.297114706039430E-001,-7.465864706039429E-001,
1.365000000000000E+009,-6.254612385053092E-001,-7.486738265227344E-001,-6.353876128308602E-001,-7.429728991270166E-001,-6.356334213730237E-001,-7.418055249038374E-001,-6.358617496490480E-001,-7.414785623550415E-001,
1.370000000000000E+009,-6.323636513147569E-001,-7.434395467413362E-001,-6.420196817634883E-001,-7.377350968835316E-001,-6.422399148421739E-001,-7.366037093684895E-001,-6.425647449493408E-001,-7.362076735496521E-001,
1.375000000000000E+009,-6.387141880329447E-001,-7.378880397743440E-001,-6.481684943303485E-001,-7.322443753615201E-001,-6.484148753474959E-001,-7.310536915190321E-001,-6.487373042106629E-001,-7.307515621185304E-001,
1.380000000000000E+009,-6.453721568846101E-001,-7.321724876573271E-001,-6.546983667324098E-001,-7.266167524731950E-001,-6.548794675951770E-001,-7.253682823757800E-001,-6.551835513114930E-001,-7.250244069099426E-001,
1.385000000000000E+009,-6.519734071701857E-001,-7.258445459233365E-001,-6.611680631590933E-001,-7.202433313966989E-001,-6.612930439434263E-001,-7.190268252789672E-001,-6.616313290596010E-001,-7.186612987518311E-001,
1.390000000000000E+009,-6.584108906892319E-001,-7.196628285819022E-001,-6.673584231957060E-001,-7.140705176299482E-001,-6.675167468790267E-001,-7.127970131312873E-001,-6.678309679031372E-001,-7.124199509620667E-001,
1.395000000000000E+009,-6.648695196118508E-001,-7.133924540519611E-001,-6.736688377904155E-001,-7.078721537946132E-001,-6.739387860159330E-001,-7.065666526091751E-001,-6.742384934425355E-001,-7.061671996116640E-001,
1.400000000000000E+009,-6.713942427781925E-001,-7.070713611806420E-001,-6.799738011964878E-001,-7.015575188561901E-001,-6.801662374586158E-001,-7.002053917203072E-001,-6.805615901947022E-001,-6.998654484748841E-001,
1.405000000000000E+009,-6.778234581540270E-001,-7.004317315611799E-001,-6.861915964285882E-001,-6.949901625566028E-001,-6.865296340868254E-001,-6.935340577867738E-001,-6.868180608749390E-001,-6.932578325271608E-001,
1.410000000000000E+009,-6.843070379240416E-001,-6.941180040274917E-001,-6.925517392022960E-001,-6.886408165283109E-001,-6.929408417805998E-001,-6.871682419340031E-001,-6.932346367836000E-001,-6.868531036376953E-001,
1.415000000000000E+009,-6.905522471976713E-001,-6.878333805198986E-001,-6.986868351050107E-001,-6.823711753468790E-001,-6.990057335384410E-001,-6.808749925955898E-001,-6.993318676948548E-001,-6.805802249908448E-001,
1.420000000000000E+009,-6.966841171761764E-001,-6.814140939859442E-001,-7.045758046911492E-001,-6.759213496832240E-001,-7.049996015797791E-001,-6.744817168366155E-001,-7.051890301704408E-001,-6.741119289398194E-001,
1.425000000000000E+009,-7.030460218309483E-001,-6.749611914156695E-001,-7.107435601986660E-001,-6.694822806139337E-001,-7.111182727184661E-001,-6.679702224042283E-001,-7.114573454856873E-001,-6.676171064376832E-001,
1.430000000000000E+009,-7.085516366349839E-001,-6.687904840648293E-001,-7.161106782497564E-001,-6.632751630992464E-001,-7.165469854542919E-001,-6.617699007181062E-001,-7.168012094497681E-001,-6.614192938804627E-001,
1.435000000000000E+009,-7.140749705640233E-001,-6.619878786576419E-001,-7.215242169856211E-001,-6.564605106200429E-001,-7.219171377012313E-001,-6.548935792696831E-001,-7.222119688987732E-001,-6.545969915390015E-001,
1.440000000000000E+009,-7.198843010554458E-001,-6.560420846872030E-001,-7.271910817848055E-001,-6.505896003779460E-001,-7.275638585885514E-001,-6.489811702420554E-001,-7.278648376464845E-001,-6.486432218551637E-001,
1.445000000000000E+009,-7.256272417107049E-001,-6.498277240657043E-001,-7.327591993132323E-001,-6.443833229083813E-001,-7.331166227773185E-001,-6.427365451576260E-001,-7.334841179847719E-001,-6.423860001564028E-001,
1.450000000000000E+009,-7.314780368686084E-001,-6.436551756943003E-001,-7.384964909635376E-001,-6.380660433632046E-001,-7.388307138864378E-001,-6.364561907682675E-001,-7.392218041419985E-001,-6.360940122604371E-001,
