% Version 1.00
%
%freq[Hz],re:Trc13_S21,im:Trc13_S21,re:Trc14_S11,im:Trc14_S11,
1.000000000000000E+009,-1.289264080541602E-001,-9.731438142241189E-001,-9.890501876083147E-002,2.895214411898858E-002,
1.005000000000000E+009,-1.380090900044892E-001,-9.717465853870010E-001,-9.800227732315403E-002,3.019416543275144E-002,
1.010000000000000E+009,-1.466304795952338E-001,-9.697339452222171E-001,-9.718360307574925E-002,2.995620075613576E-002,
1.015000000000000E+009,-1.552140718481052E-001,-9.677089263981338E-001,-9.685893123180378E-002,3.181678566930482E-002,
1.020000000000000E+009,-1.635285238588364E-001,-9.651634030787626E-001,-9.649818500491994E-002,3.300895589780152E-002,
1.025000000000000E+009,-1.712733565594590E-001,-9.626140530180765E-001,-9.431388330539844E-002,3.458457160448708E-002,
1.030000000000000E+009,-1.789444172260948E-001,-9.604279039012502E-001,-9.431422372053910E-002,3.674493442016259E-002,
1.035000000000000E+009,-1.866594001327784E-001,-9.586033678892093E-001,-9.278631023745729E-002,3.850124064365228E-002,
1.040000000000000E+009,-1.939902588470704E-001,-9.571210688648488E-001,-9.142557308734896E-002,3.974722844196870E-002,
1.045000000000000E+009,-2.016094447960853E-001,-9.559074809617288E-001,-8.991939657610780E-002,4.244974050526712E-002,
1.050000000000000E+009,-2.099725280058802E-001,-9.545831554591311E-001,-8.846564128704440E-002,4.530444729557329E-002,
1.055000000000000E+009,-2.187103182158140E-001,-9.534042637651076E-001,-8.519301583887452E-002,4.624865566609131E-002,
1.060000000000000E+009,-2.278562668977259E-001,-9.517029545215981E-001,-8.213254940204377E-002,4.811916166050859E-002,
1.065000000000000E+009,-2.372915090512381E-001,-9.501333797377224E-001,-7.966588783544100E-002,4.914579268844407E-002,
1.070000000000000E+009,-2.472002104774167E-001,-9.480618007110476E-001,-7.607513512029786E-002,4.893946488904772E-002,
1.075000000000000E+009,-2.570552637422132E-001,-9.456826665538393E-001,-7.341122423165775E-002,4.892094122529504E-002,
1.080000000000000E+009,-2.672721632774732E-001,-9.429642735460575E-001,-7.229871246541475E-002,4.768235931278146E-002,
1.085000000000000E+009,-2.776418971494563E-001,-9.401864914173466E-001,-6.961718669251328E-002,4.698147364702546E-002,
1.090000000000000E+009,-2.875115747417700E-001,-9.370537699672195E-001,-6.825011693567978E-002,4.547156020554650E-002,
1.095000000000000E+009,-2.976618950847626E-001,-9.338366339222171E-001,-6.711258226296540E-002,4.392097130062005E-002,
1.100000000000000E+009,-3.078117409401740E-001,-9.299872720672489E-001,-6.657022151856218E-002,4.237839080037208E-002,
1.105000000000000E+009,-3.181573162033924E-001,-9.265758972568117E-001,-6.574856333236666E-002,4.198456698223367E-002,
1.110000000000000E+009,-3.284267426745649E-001,-9.225325474770937E-001,-6.501979336272264E-002,4.117416720213266E-002,
1.115000000000000E+009,-3.390831809692372E-001,-9.181754280142408E-001,-6.388544690627383E-002,3.969734134653405E-002,
1.120000000000000E+009,-3.499683249131654E-001,-9.135862053353420E-001,-6.141055864774210E-002,4.057707332120904E-002,
1.125000000000000E+009,-3.613563667294538E-001,-9.093977737074612E-001,-5.945758674755243E-002,4.082025603850953E-002,
1.130000000000000E+009,-3.734158168795576E-001,-9.047258236868606E-001,-5.553843657630632E-002,4.180657697651995E-002,
1.135000000000000E+009,-3.862935989188514E-001,-8.992229333832864E-001,-4.930837962347696E-002,4.205063890713120E-002,
1.140000000000000E+009,-3.997795899880013E-001,-8.933220848273111E-001,-4.325147856956284E-002,4.179003408959054E-002,
1.145000000000000E+009,-4.149009841026295E-001,-8.863666428034414E-001,-3.415334683433053E-002,4.114172708251955E-002,
1.150000000000000E+009,-4.310824733936311E-001,-8.775739033401211E-001,-2.307757589160675E-002,3.804763473304596E-002,
1.155000000000000E+009,-4.499733251091951E-001,-8.673542511295631E-001,-8.854038216348843E-003,3.409969452006814E-002,
1.160000000000000E+009,-4.720522210902852E-001,-8.541193189877299E-001,9.028343021007997E-003,2.676742729362672E-002,
1.165000000000000E+009,-4.983053218553114E-001,-8.356499452732535E-001,3.107764739257428E-002,1.451286686256129E-002,
1.170000000000000E+009,-5.306093558291457E-001,-8.079196016899906E-001,6.110951376474542E-002,-7.246473290730212E-003,
1.175000000000000E+009,-5.707837682683450E-001,-7.620373262783290E-001,1.001500383993827E-001,-4.899402464449053E-002,
1.180000000000000E+009,-6.173252071216566E-001,-6.737019498424917E-001,1.483232056413568E-001,-1.330457655330798E-001,
1.185000000000000E+009,-6.254771818847157E-001,-4.812470450029927E-001,1.663091202882911E-001,-3.280848136403999E-001,
1.190000000000000E+009,-3.210924322958484E-001,-2.351400437362888E-001,-1.336977796578345E-001,-6.040132721303212E-001,
1.195000000000000E+009,2.268581463556966E-002,-5.433873340695692E-001,-5.201965338023648E-001,-3.110856278836793E-001,
1.200000000000000E+009,-6.637394790244905E-002,-7.877683748218667E-001,-4.552027214233070E-001,-4.733835280728999E-002,
1.205000000000000E+009,-1.701505723705027E-001,-8.604403973997463E-001,-3.617556670548536E-001,3.944597670550500E-002,
1.210000000000000E+009,-2.392026126298880E-001,-8.820388281349942E-001,-2.998771285907825E-001,7.122217432056993E-002,
1.215000000000000E+009,-2.868046202446509E-001,-8.876587936705753E-001,-2.598184651803388E-001,8.452192605729250E-002,
1.220000000000000E+009,-3.220793878679707E-001,-8.871278342545962E-001,-2.313846896054636E-001,8.979926455046390E-002,
1.225000000000000E+009,-3.494944656694697E-001,-8.842029920348222E-001,-2.116171570533198E-001,9.193050130410066E-002,
1.230000000000000E+009,-3.722000071912598E-001,-8.797353651431168E-001,-1.976711135872202E-001,9.388528330617223E-002,
1.235000000000000E+009,-3.914350290680574E-001,-8.747646481169047E-001,-1.854903186482425E-001,9.500171670160312E-002,
1.240000000000000E+009,-4.084633784486897E-001,-8.692670670124306E-001,-1.777343369381538E-001,9.477519898062425E-002,
1.245000000000000E+009,-4.238153122677021E-001,-8.642693005490518E-001,-1.692266003834806E-001,9.451340220264545E-002,
1.250000000000000E+009,-4.374260763729067E-001,-8.586714104388002E-001,-1.637268209298234E-001,9.529425766076982E-002,
1.255000000000000E+009,-4.500612570829463E-001,-8.534862267069777E-001,-1.596460897587976E-001,9.578936425642123E-002,
1.260000000000000E+009,-4.619188448109608E-001,-8.482667629420657E-001,-1.544334069933387E-001,9.611870592450061E-002,
1.265000000000000E+009,-4.726665254125947E-001,-8.427632672280069E-001,-1.515426478571771E-001,9.778489641565905E-002,
1.270000000000000E+009,-4.825124503062226E-001,-8.377871864336964E-001,-1.478899916638989E-001,9.973806622267201E-002,
1.275000000000000E+009,-4.921220295106593E-001,-8.325309654135220E-001,-1.438052371507538E-001,1.005841106109955E-001,
1.280000000000000E+009,-5.010780984975465E-001,-8.276618947324015E-001,-1.393466726599695E-001,1.032354907942551E-001,
1.285000000000000E+009,-5.096192368155615E-001,-8.227626754677175E-001,-1.351440762626420E-001,1.050459251270792E-001,
1.290000000000000E+009,-5.182525357715603E-001,-8.175998658124783E-001,-1.308170053543222E-001,1.070596382907244E-001,
1.295000000000000E+009,-5.265225910124439E-001,-8.123938572625100E-001,-1.267776999127198E-001,1.073150441022203E-001,
1.300000000000000E+009,-5.339348568308791E-001,-8.071424966484048E-001,-1.226989684246839E-001,1.096075224481255E-001,
1.305000000000000E+009,-5.415818970134961E-001,-8.020626741189529E-001,-1.177219653279525E-001,1.106203546433927E-001,
1.310000000000000E+009,-5.487850686961512E-001,-7.969864863624685E-001,-1.140019870841623E-001,1.115310909650948E-001,
1.315000000000000E+009,-5.561510313992065E-001,-7.922789646870071E-001,-1.098747650895569E-001,1.117587807863009E-001,
1.320000000000000E+009,-5.636263553202309E-001,-7.875196877486281E-001,-1.058693115034235E-001,1.120080597017044E-001,
1.325000000000000E+009,-5.711032005358047E-001,-7.826974244240041E-001,-1.029699094086312E-001,1.113277996482045E-001,
1.330000000000000E+009,-5.789879778935022E-001,-7.777313509601981E-001,-9.988482585352923E-002,1.114917982434769E-001,
1.335000000000000E+009,-5.860801354590699E-001,-7.724198660059621E-001,-9.846417801543063E-002,1.109796639871498E-001,
1.340000000000000E+009,-5.932244500109315E-001,-7.672207401589115E-001,-9.709822605374974E-002,1.104262059011879E-001,
1.345000000000000E+009,-6.002211242532094E-001,-7.619037732883596E-001,-9.578895160591876E-002,1.094887946675394E-001,
1.350000000000000E+009,-6.070929923920400E-001,-7.564594047435013E-001,-9.548834882617267E-002,1.089308331575528E-001,
1.355000000000000E+009,-6.140963344542810E-001,-7.512102996304202E-001,-9.429385606741765E-002,1.087969793834934E-001,
1.360000000000000E+009,-6.212966959133559E-001,-7.458458072122278E-001,-9.535712158763844E-002,1.079586045556049E-001,
1.365000000000000E+009,-6.282227332862197E-001,-7.404345547657888E-001,-9.502900149063677E-002,1.085755868625356E-001,
1.370000000000000E+009,-6.355756593529895E-001,-7.347930747298682E-001,-9.426280295730762E-002,1.098786563692992E-001,
1.375000000000000E+009,-6.422548492845351E-001,-7.289268047219887E-001,-9.371145447615009E-002,1.093928229479825E-001,
1.380000000000000E+009,-6.492166205528067E-001,-7.228149901718484E-001,-9.308271617840168E-002,1.108720788187564E-001,
1.385000000000000E+009,-6.559960170464052E-001,-7.160608764993398E-001,-9.229922280506792E-002,1.118712929830094E-001,
1.390000000000000E+009,-6.625941329141419E-001,-7.095926454969130E-001,-9.125934997157427E-002,1.124773986247139E-001,
1.395000000000000E+009,-6.692399979942714E-001,-7.030678731249795E-001,-8.937057423258807E-002,1.134260716611801E-001,
1.400000000000000E+009,-6.756764949583510E-001,-6.966307219959328E-001,-8.698171852739731E-002,1.144014281412314E-001,
1.405000000000000E+009,-6.822336924842470E-001,-6.897869311887526E-001,-8.538073692703968E-002,1.150588908796953E-001,
1.410000000000000E+009,-6.888628035598733E-001,-6.832910350342688E-001,-8.336457604899050E-002,1.158636066985209E-001,
1.415000000000000E+009,-6.952186733556252E-001,-6.768215823598097E-001,-8.175906501622393E-002,1.166014159960627E-001,
1.420000000000000E+009,-7.013634317967055E-001,-6.703007498552883E-001,-7.916103370223575E-002,1.180712717793894E-001,
1.425000000000000E+009,-7.076866439025049E-001,-6.636784115754213E-001,-7.704476672722703E-002,1.182056051967615E-001,
1.430000000000000E+009,-7.132634264949965E-001,-6.572730448460890E-001,-7.427401375203735E-002,1.189256510096068E-001,
1.435000000000000E+009,-7.188236372000025E-001,-6.503807342585927E-001,-7.257298715800203E-002,1.203122413094800E-001,
1.440000000000000E+009,-7.246764204604286E-001,-6.443645385608645E-001,-6.948763947728411E-002,1.216158722896938E-001,
1.445000000000000E+009,-7.304063484082630E-001,-6.380398891041800E-001,-6.673787161350116E-002,1.222571651211408E-001,
1.450000000000000E+009,-7.362610667477041E-001,-6.316912272347486E-001,-6.420734102710346E-002,1.229870079343036E-001,
1.455000000000000E+009,-7.421282215084670E-001,-6.253385484246865E-001,-6.142268125053491E-002,1.231474140682454E-001,
1.460000000000000E+009,-7.475709178696877E-001,-6.188872813735182E-001,-5.954216545655328E-002,1.216704495840940E-001,
1.465000000000000E+009,-7.524769397438796E-001,-6.125635633706141E-001,-5.725334182728212E-002,1.222231112711815E-001,
1.470000000000000E+009,-7.577909719545987E-001,-6.062231563533376E-001,-5.619525106528620E-002,1.214288712348554E-001,
1.475000000000000E+009,-7.630054488216715E-001,-5.995764815590101E-001,-5.514735820740267E-002,1.207341958276282E-001,
1.480000000000000E+009,-7.684223705382339E-001,-5.930216939607143E-001,-5.432794806431864E-002,1.191721654195330E-001,
1.485000000000000E+009,-7.736909193428981E-001,-5.859254743392848E-001,-5.421951165278086E-002,1.182644322322675E-001,
1.490000000000000E+009,-7.788735779293532E-001,-5.793614332894312E-001,-5.432750771184861E-002,1.169560066213204E-001,
1.495000000000000E+009,-7.839915296048550E-001,-5.723874494950954E-001,-5.535665833692079E-002,1.169880041588063E-001,
1.500000000000000E+009,-7.890739457789151E-001,-5.656004357270826E-001,-5.538092026696923E-002,1.163945428108286E-001,
1.505000000000000E+009,-7.941809071374342E-001,-5.588799246835903E-001,-5.516987401649361E-002,1.165319631801365E-001,
1.510000000000000E+009,-7.993095843271658E-001,-5.519555707151296E-001,-5.529727581238268E-002,1.172700290930346E-001,
1.515000000000000E+009,-8.040450362455298E-001,-5.449468685495008E-001,-5.542682646996362E-002,1.188936638564658E-001,
1.520000000000000E+009,-8.089843584698844E-001,-5.379659967755446E-001,-5.444331213380785E-002,1.194248972058245E-001,
1.525000000000000E+009,-8.134725582514968E-001,-5.311748647719838E-001,-5.251698157641573E-002,1.202645149895110E-001,
1.530000000000000E+009,-8.177375400223342E-001,-5.239508448872157E-001,-5.188439258748880E-002,1.213289042384323E-001,
1.535000000000000E+009,-8.218012231128553E-001,-5.170208001781068E-001,-4.945549938077150E-002,1.216792815531408E-001,
1.540000000000000E+009,-8.257057352667141E-001,-5.099240740597646E-001,-4.669903259784837E-002,1.228896891089257E-001,
1.545000000000000E+009,-8.294788554322061E-001,-5.027035343949804E-001,-4.505343270037682E-002,1.223151437699613E-001,
1.550000000000000E+009,-8.332949558225602E-001,-4.955722243003480E-001,-4.216420342472108E-002,1.235706797549877E-001,
1.555000000000000E+009,-8.371702632296169E-001,-4.886912058913459E-001,-3.999668759598123E-002,1.233411436487416E-001,
1.560000000000000E+009,-8.411827642648891E-001,-4.815644415125831E-001,-3.623750030495126E-002,1.229543657840615E-001,
1.565000000000000E+009,-8.445848398527506E-001,-4.740995055027321E-001,-3.435716964335633E-002,1.237026343273101E-001,
1.570000000000000E+009,-8.480798643690590E-001,-4.668057627953114E-001,-3.221967078461839E-002,1.233866569815059E-001,
1.575000000000000E+009,-8.516643211375673E-001,-4.593981312182082E-001,-3.057000628321118E-002,1.235565838695595E-001,
1.580000000000000E+009,-8.549450261879398E-001,-4.521102934171749E-001,-3.022130515423966E-002,1.230662985053772E-001,
1.585000000000000E+009,-8.581836577172000E-001,-4.453635075647280E-001,-2.757583960123727E-002,1.237541221372664E-001,
1.590000000000000E+009,-8.617054560555484E-001,-4.384438144964796E-001,-2.639202607767403E-002,1.234357390748073E-001,
1.595000000000000E+009,-8.650963609777322E-001,-4.316658698780110E-001,-2.550642805051858E-002,1.237437575047399E-001,
1.600000000000000E+009,-8.687373295420949E-001,-4.251280266896998E-001,-2.439971252927838E-002,1.230255610239066E-001,
1.605000000000000E+009,-8.722608241600003E-001,-4.180512361512489E-001,-2.267431644405556E-002,1.241234938324523E-001,
1.610000000000000E+009,-8.759114435604141E-001,-4.108482319978890E-001,-2.202846014912193E-002,1.228282912698662E-001,
1.615000000000000E+009,-8.791913494848671E-001,-4.038259225656612E-001,-2.009920130549420E-002,1.230020507552828E-001,
1.620000000000000E+009,-8.823282052665822E-001,-3.965791084634365E-001,-1.933980454733967E-002,1.220583395756513E-001,
1.625000000000000E+009,-8.854920608841725E-001,-3.893265931337129E-001,-1.908906630460011E-002,1.201918753170282E-001,
1.630000000000000E+009,-8.885340395474820E-001,-3.816592337078133E-001,-1.888938324752125E-002,1.190454889762362E-001,
1.635000000000000E+009,-8.915492658978432E-001,-3.749085562098811E-001,-1.812679376616993E-002,1.183549716714492E-001,
1.640000000000000E+009,-8.946991030706618E-001,-3.674254622218555E-001,-1.902472550158150E-002,1.172004302634630E-001,
1.645000000000000E+009,-8.974625129143959E-001,-3.595697252412335E-001,-1.803717022883396E-002,1.165037095071602E-001,
1.650000000000000E+009,-9.004316829897537E-001,-3.520595710623194E-001,-1.855108108171250E-002,1.155944360879959E-001,
1.655000000000000E+009,-9.030225234324051E-001,-3.444426678764753E-001,-1.817588310122826E-002,1.155310807539472E-001,
1.660000000000000E+009,-9.055605197306851E-001,-3.368612296095973E-001,-1.738981308072220E-002,1.156675993161049E-001,
1.665000000000000E+009,-9.083923615397804E-001,-3.292357347451057E-001,-1.662673675533165E-002,1.166911170776966E-001,
1.670000000000000E+009,-9.118258969200295E-001,-3.213698749616847E-001,-1.591979134395585E-002,1.176777462069649E-001,
1.675000000000000E+009,-9.152673521672831E-001,-3.133589875643983E-001,-1.352799265827584E-002,1.181013904067466E-001,
1.680000000000000E+009,-9.182365162920327E-001,-3.055086109449335E-001,-1.077004529844691E-002,1.192599179298360E-001,
1.685000000000000E+009,-9.216067908214664E-001,-2.975375525631720E-001,-7.598155668617985E-003,1.196516332295243E-001,
1.690000000000000E+009,-9.242331918543081E-001,-2.890728367398310E-001,-5.085409925441209E-003,1.201763924426284E-001,
1.695000000000000E+009,-9.265503935619436E-001,-2.811237782484772E-001,-1.784314500315490E-003,1.194024733372957E-001,
1.700000000000000E+009,-9.285495656410476E-001,-2.728716320819037E-001,1.010075721360424E-003,1.181771131760428E-001,
1.705000000000000E+009,-9.301738427925722E-001,-2.647775784549940E-001,1.386076812171185E-003,1.177102269211846E-001,
1.710000000000000E+009,-9.320769954186233E-001,-2.568145397669159E-001,4.405114012627479E-003,1.164350360265175E-001,
1.715000000000000E+009,-9.340676454489907E-001,-2.488422346686335E-001,5.658218274222004E-003,1.147526804441867E-001,
1.720000000000000E+009,-9.360719312342739E-001,-2.411356202582343E-001,6.547855165471852E-003,1.138992088763647E-001,
1.725000000000000E+009,-9.374199374593056E-001,-2.331575452089564E-001,7.777538550122844E-003,1.127902782620998E-001,
1.730000000000000E+009,-9.388829910176004E-001,-2.257583302698432E-001,7.096093275719806E-003,1.119916908848188E-001,
1.735000000000000E+009,-9.407054974362809E-001,-2.184552610842197E-001,6.794266267566997E-003,1.108155526065937E-001,
1.740000000000000E+009,-9.425248812260867E-001,-2.107711568207065E-001,5.836837346756134E-003,1.108437983994843E-001,
1.745000000000000E+009,-9.447750064992654E-001,-2.031264201006336E-001,6.026095725013964E-003,1.105419411126821E-001,
1.750000000000000E+009,-9.466210998020315E-001,-1.954691407096601E-001,5.260087434006501E-003,1.096848207748134E-001,
1.755000000000000E+009,-9.487578026419693E-001,-1.876754715657352E-001,4.574911055056497E-003,1.093363422624453E-001,
1.760000000000000E+009,-9.508991855922258E-001,-1.797696706608549E-001,4.009844622610666E-003,1.089060880415810E-001,
1.765000000000000E+009,-9.527612446789175E-001,-1.718023365258988E-001,4.425490561069853E-003,1.094892626775254E-001,
1.770000000000000E+009,-9.544858177949062E-001,-1.631758788978064E-001,4.446304489828682E-003,1.095380153340503E-001,
1.775000000000000E+009,-9.560792238718276E-001,-1.545785497684308E-001,4.157512725147840E-003,1.102201942591393E-001,
1.780000000000000E+009,-9.575364729996305E-001,-1.461820788335959E-001,4.864695195677634E-003,1.092925034751728E-001,
1.785000000000000E+009,-9.587240062747024E-001,-1.374232960407666E-001,6.123959773608114E-003,1.085915855231105E-001,
1.790000000000000E+009,-9.600918407803079E-001,-1.293986435916153E-001,6.745248819918177E-003,1.088820990377890E-001,
1.795000000000000E+009,-9.612983180084695E-001,-1.212206079293563E-001,8.473052179120619E-003,1.094475698568810E-001,
1.800000000000000E+009,-9.623932057005862E-001,-1.127432136931351E-001,9.550312436914616E-003,1.092548001899544E-001,
1.805000000000000E+009,-9.629053483429043E-001,-1.045081179048732E-001,1.197815189870017E-002,1.095664460511202E-001,
1.810000000000000E+009,-9.637978573505508E-001,-9.570813194714373E-002,1.402479498311959E-002,1.097348744419043E-001,
1.815000000000000E+009,-9.645607290516763E-001,-8.729426116121813E-002,1.687719938422776E-002,1.094275822984055E-001,
1.820000000000000E+009,-9.648292987523649E-001,-7.906045765674288E-002,1.963340572505738E-002,1.097372640341150E-001,
1.825000000000000E+009,-9.656065331276333E-001,-7.051955125281251E-002,2.154476667473824E-002,1.091900042051473E-001,
