% Version 1.00
%
%freq[Hz],re:Trc13_S21,im:Trc13_S21,
1.000000000000000E+009,-9.171571134469729E-002,-9.775931233725966E-001,
1.005000000000000E+009,-1.003802354439777E-001,-9.765940336113681E-001,
1.010000000000000E+009,-1.085057242959545E-001,-9.750295938427536E-001,
1.015000000000000E+009,-1.165725402392042E-001,-9.735026711042345E-001,
1.020000000000000E+009,-1.244988399117135E-001,-9.714900107212108E-001,
1.025000000000000E+009,-1.319151830667531E-001,-9.694141239427501E-001,
1.030000000000000E+009,-1.391025529228297E-001,-9.674474121497265E-001,
1.035000000000000E+009,-1.463181680016706E-001,-9.658333472965313E-001,
1.040000000000000E+009,-1.529533715460368E-001,-9.644403854222334E-001,
1.045000000000000E+009,-1.595793987950818E-001,-9.634552014060150E-001,
1.050000000000000E+009,-1.669084336033489E-001,-9.624567484735269E-001,
1.055000000000000E+009,-1.744814499902282E-001,-9.617716436776501E-001,
1.060000000000000E+009,-1.824526492688690E-001,-9.607228015242767E-001,
1.065000000000000E+009,-1.906552815712539E-001,-9.598323016985638E-001,
1.070000000000000E+009,-1.993861672188749E-001,-9.584929438379133E-001,
1.075000000000000E+009,-2.079359570102622E-001,-9.569682638272772E-001,
1.080000000000000E+009,-2.168173771038807E-001,-9.550199325632380E-001,
1.085000000000000E+009,-2.256965401338227E-001,-9.530769579006697E-001,
1.090000000000000E+009,-2.340569450363834E-001,-9.508710130547848E-001,
1.095000000000000E+009,-2.423791574796783E-001,-9.486588540741530E-001,
1.100000000000000E+009,-2.506652604722831E-001,-9.458768915161213E-001,
1.105000000000000E+009,-2.588491049316848E-001,-9.436815151408816E-001,
1.110000000000000E+009,-2.667010259090640E-001,-9.409029464997281E-001,
1.115000000000000E+009,-2.746460831407656E-001,-9.379815645292370E-001,
1.120000000000000E+009,-2.823559899061956E-001,-9.350203562271680E-001,
1.125000000000000E+009,-2.900404471655412E-001,-9.327738681061447E-001,
1.130000000000000E+009,-2.977048876452282E-001,-9.304058815872397E-001,
1.135000000000000E+009,-3.055694034053759E-001,-9.277795758768588E-001,
1.140000000000000E+009,-3.131671125946982E-001,-9.252403923534019E-001,
1.145000000000000E+009,-3.209847515194648E-001,-9.226166966651376E-001,
1.150000000000000E+009,-3.283980878184025E-001,-9.195118546196051E-001,
1.155000000000000E+009,-3.363180496487467E-001,-9.168077183780095E-001,
1.160000000000000E+009,-3.444836170011663E-001,-9.141820664194134E-001,
1.165000000000000E+009,-3.525350285184318E-001,-9.112136614775027E-001,
1.170000000000000E+009,-3.608056500744586E-001,-9.082558742616447E-001,
1.175000000000000E+009,-3.688769869182946E-001,-9.054269896182710E-001,
1.180000000000000E+009,-3.769857397669862E-001,-9.024458834262761E-001,
1.185000000000000E+009,-3.849829564266191E-001,-8.993447771263076E-001,
1.190000000000000E+009,-3.925513380359180E-001,-8.959447540222212E-001,
1.195000000000000E+009,-4.001275757654796E-001,-8.926589352936246E-001,
1.200000000000000E+009,-4.077418433145408E-001,-8.894741465003092E-001,
1.205000000000000E+009,-4.154676882851870E-001,-8.862852423908769E-001,
1.210000000000000E+009,-4.234131709433544E-001,-8.827296475753232E-001,
1.215000000000000E+009,-4.314905686344496E-001,-8.792235500517931E-001,
1.220000000000000E+009,-4.393666096280847E-001,-8.753222594316552E-001,
1.225000000000000E+009,-4.472357199536702E-001,-8.714540827981473E-001,
1.230000000000000E+009,-4.554760763728524E-001,-8.671464315037977E-001,
1.235000000000000E+009,-4.633948721680914E-001,-8.627871013546841E-001,
1.240000000000000E+009,-4.713970141223739E-001,-8.582703944447911E-001,
1.245000000000000E+009,-4.795073382015004E-001,-8.541232007517513E-001,
1.250000000000000E+009,-4.871209013385062E-001,-8.494852031150620E-001,
1.255000000000000E+009,-4.946654069123440E-001,-8.451452065687015E-001,
1.260000000000000E+009,-5.021441006664706E-001,-8.406429390736133E-001,
1.265000000000000E+009,-5.092894263040393E-001,-8.359489265545343E-001,
1.270000000000000E+009,-5.159178347510995E-001,-8.316410163596011E-001,
1.275000000000000E+009,-5.225792619930575E-001,-8.268646686815999E-001,
1.280000000000000E+009,-5.291552146258027E-001,-8.225674131976505E-001,
1.285000000000000E+009,-5.352953827378533E-001,-8.181990418313820E-001,
1.290000000000000E+009,-5.420297359204095E-001,-8.134374544149354E-001,
1.295000000000000E+009,-5.484161700223824E-001,-8.087026411474689E-001,
1.300000000000000E+009,-5.542629430078340E-001,-8.038880711767658E-001,
1.305000000000000E+009,-5.604011282485205E-001,-7.990884135936224E-001,
1.310000000000000E+009,-5.662508760830710E-001,-7.944587252568007E-001,
1.315000000000000E+009,-5.722725563429347E-001,-7.900984997819209E-001,
1.320000000000000E+009,-5.786087965083666E-001,-7.857089415701506E-001,
1.325000000000000E+009,-5.849946450828998E-001,-7.813310814927945E-001,
1.330000000000000E+009,-5.918120174836150E-001,-7.766546936504263E-001,
1.335000000000000E+009,-5.978754539694746E-001,-7.717528304726787E-001,
1.340000000000000E+009,-6.042027355182322E-001,-7.669794630356800E-001,
1.345000000000000E+009,-6.103198884704236E-001,-7.619507114941054E-001,
1.350000000000000E+009,-6.163560359427394E-001,-7.568730638904822E-001,
1.355000000000000E+009,-6.225380998173111E-001,-7.518510192492764E-001,
1.360000000000000E+009,-6.289941528849292E-001,-7.468349286621185E-001,
1.365000000000000E+009,-6.351386390038637E-001,-7.417475357848136E-001,
1.370000000000000E+009,-6.419037225657996E-001,-7.364852668359623E-001,
1.375000000000000E+009,-6.481103944285286E-001,-7.310636158263744E-001,
1.380000000000000E+009,-6.545496780401544E-001,-7.253070829200229E-001,
1.385000000000000E+009,-6.609620313446858E-001,-7.189626841177341E-001,
1.390000000000000E+009,-6.672097179190012E-001,-7.127530761498810E-001,
1.395000000000000E+009,-6.735153000321605E-001,-7.065514186934048E-001,
1.400000000000000E+009,-6.797741408267689E-001,-7.003258057601902E-001,
1.405000000000000E+009,-6.859838129943896E-001,-6.936591299465702E-001,
1.410000000000000E+009,-6.923313113283852E-001,-6.873808510683860E-001,
1.415000000000000E+009,-6.984250327197834E-001,-6.811790770593638E-001,
1.420000000000000E+009,-7.042778774843477E-001,-6.747650344868510E-001,
1.425000000000000E+009,-7.104352057932085E-001,-6.682923401291423E-001,
1.430000000000000E+009,-7.157784451347118E-001,-6.620949616553646E-001,
1.435000000000000E+009,-7.210374169529502E-001,-6.553273066101855E-001,
1.440000000000000E+009,-7.267375993173968E-001,-6.494798029785998E-001,
1.445000000000000E+009,-7.323052686074233E-001,-6.433221663253870E-001,
1.450000000000000E+009,-7.379251719633484E-001,-6.371381144782419E-001,
1.455000000000000E+009,-7.436158244569778E-001,-6.309049780086683E-001,
1.460000000000000E+009,-7.488124161707042E-001,-6.246128772729853E-001,
1.465000000000000E+009,-7.535107605906136E-001,-6.185364435412737E-001,
1.470000000000000E+009,-7.585985785984231E-001,-6.124276278563315E-001,
1.475000000000000E+009,-7.636906075370873E-001,-6.059992010940347E-001,
1.480000000000000E+009,-7.689101584780760E-001,-5.997499682185477E-001,
1.485000000000000E+009,-7.740354512413046E-001,-5.928301794119650E-001,
1.490000000000000E+009,-7.790840804309422E-001,-5.865308453545263E-001,
1.495000000000000E+009,-7.839858466047358E-001,-5.799056413068249E-001,
1.500000000000000E+009,-7.890323803910512E-001,-5.734123681076553E-001,
1.505000000000000E+009,-7.940789937825852E-001,-5.669196883254133E-001,
1.510000000000000E+009,-7.991033985325089E-001,-5.602455407392010E-001,
1.515000000000000E+009,-8.037257233041311E-001,-5.535298902579395E-001,
1.520000000000000E+009,-8.086685259409148E-001,-5.468135787726786E-001,
1.525000000000000E+009,-8.129916234007728E-001,-5.402149052089510E-001,
1.530000000000000E+009,-8.172727092564842E-001,-5.331939688628503E-001,
1.535000000000000E+009,-8.214452158187415E-001,-5.264345202126917E-001,
1.540000000000000E+009,-8.251760445165640E-001,-5.196141403041006E-001,
1.545000000000000E+009,-8.289643477180686E-001,-5.125188084713415E-001,
1.550000000000000E+009,-8.329456043573339E-001,-5.055340489378377E-001,
1.555000000000000E+009,-8.367303745323765E-001,-4.988159571658571E-001,
1.560000000000000E+009,-8.407269595414841E-001,-4.917986775349389E-001,
1.565000000000000E+009,-8.442823366026433E-001,-4.844106651429525E-001,
1.570000000000000E+009,-8.477520079375471E-001,-4.773017382398817E-001,
1.575000000000000E+009,-8.513538031520309E-001,-4.699688598874031E-001,
1.580000000000000E+009,-8.546117841441557E-001,-4.627573115423496E-001,
1.585000000000000E+009,-8.578841201707423E-001,-4.560042549736406E-001,
1.590000000000000E+009,-8.612406157387865E-001,-4.492840038951118E-001,
1.595000000000000E+009,-8.646360924006364E-001,-4.424552956099857E-001,
1.600000000000000E+009,-8.681215525264669E-001,-4.360667046379625E-001,
1.605000000000000E+009,-8.715721160026930E-001,-4.292033267265725E-001,
1.610000000000000E+009,-8.752096247370825E-001,-4.220873762185942E-001,
1.615000000000000E+009,-8.785301389155611E-001,-4.152669054470284E-001,
1.620000000000000E+009,-8.817354513803982E-001,-4.082988197836811E-001,
1.625000000000000E+009,-8.849663855721752E-001,-4.012340547129759E-001,
1.630000000000000E+009,-8.881006408804171E-001,-3.937598567401924E-001,
1.635000000000000E+009,-8.913042846772397E-001,-3.871196664053574E-001,
1.640000000000000E+009,-8.946082019902721E-001,-3.796841595586733E-001,
1.645000000000000E+009,-8.974603433283312E-001,-3.718917289358559E-001,
1.650000000000000E+009,-9.003857434198536E-001,-3.644462685850965E-001,
1.655000000000000E+009,-9.031812937196264E-001,-3.568469410569414E-001,
1.660000000000000E+009,-9.055750051608017E-001,-3.492285739486104E-001,
1.665000000000000E+009,-9.084978638208349E-001,-3.417031477211142E-001,
1.670000000000000E+009,-9.119531288705087E-001,-3.339263058839100E-001,
1.675000000000000E+009,-9.153344081613128E-001,-3.260335756816205E-001,
1.680000000000000E+009,-9.185475401971583E-001,-3.181441755591048E-001,
1.685000000000000E+009,-9.219116560876124E-001,-3.100354231029529E-001,
1.690000000000000E+009,-9.244619572996358E-001,-3.016982415987187E-001,
1.695000000000000E+009,-9.269150794427239E-001,-2.935715008008352E-001,
1.700000000000000E+009,-9.288784883163695E-001,-2.853225883374035E-001,
1.705000000000000E+009,-9.304002640435314E-001,-2.772056137834037E-001,
1.710000000000000E+009,-9.322133844111805E-001,-2.693076044373564E-001,
1.715000000000000E+009,-9.340715475274255E-001,-2.613448785376318E-001,
1.720000000000000E+009,-9.360174585802854E-001,-2.537366567399811E-001,
1.725000000000000E+009,-9.372891254812156E-001,-2.460049109428251E-001,
1.730000000000000E+009,-9.386150912276309E-001,-2.387559280891547E-001,
1.735000000000000E+009,-9.404458733140060E-001,-2.315005218923523E-001,
1.740000000000000E+009,-9.423022836573727E-001,-2.242098085321230E-001,
1.745000000000000E+009,-9.444795045662551E-001,-2.168181003468597E-001,
1.750000000000000E+009,-9.464034787995902E-001,-2.094238122912144E-001,
1.755000000000000E+009,-9.486565239105782E-001,-2.019039874213361E-001,
1.760000000000000E+009,-9.508659692059827E-001,-1.942006504074984E-001,
1.765000000000000E+009,-9.529755116525576E-001,-1.863564584819737E-001,
1.770000000000000E+009,-9.549082476350279E-001,-1.779496564898321E-001,
1.775000000000000E+009,-9.567844223107248E-001,-1.696094051753641E-001,
1.780000000000000E+009,-9.584009231344104E-001,-1.611286493801744E-001,
1.785000000000000E+009,-9.597671288319316E-001,-1.525950962905067E-001,
1.790000000000000E+009,-9.613525040198993E-001,-1.445166110306572E-001,
1.795000000000000E+009,-9.627946163306578E-001,-1.363744669592559E-001,
1.800000000000000E+009,-9.639495123017451E-001,-1.280618628924085E-001,
1.805000000000000E+009,-9.646909639963557E-001,-1.197013689949001E-001,
1.810000000000000E+009,-9.657453902858016E-001,-1.108803010721962E-001,
1.815000000000000E+009,-9.666022450331750E-001,-1.024373304322123E-001,
1.820000000000000E+009,-9.669859176767603E-001,-9.407663481128614E-002,
1.825000000000000E+009,-9.678368577602327E-001,-8.555985686223298E-002,
1.830000000000000E+009,-9.686572006311986E-001,-7.704853697265372E-002,
1.835000000000000E+009,-9.692178171597293E-001,-6.841905780881079E-002,
1.840000000000000E+009,-9.696856555230239E-001,-5.951683201947021E-002,
1.845000000000000E+009,-9.696677900928721E-001,-5.012911668055913E-002,
1.850000000000000E+009,-9.695592062915659E-001,-4.096470640557544E-002,
1.855000000000000E+009,-9.688145892467813E-001,-3.158858688958165E-002,
1.860000000000000E+009,-9.682580218302814E-001,-2.259088087862434E-002,
1.865000000000000E+009,-9.672213434652256E-001,-1.377632557991363E-002,
1.870000000000000E+009,-9.660893918286378E-001,-5.253815406945113E-003,
1.875000000000000E+009,-9.648084750123949E-001,2.830882364610695E-003,
1.880000000000000E+009,-9.642391537324145E-001,1.111207362022088E-002,
1.885000000000000E+009,-9.633708925095876E-001,1.919107733772689E-002,
1.890000000000000E+009,-9.627486158219942E-001,2.728468328767346E-002,
1.895000000000000E+009,-9.625828404045270E-001,3.500845384519732E-002,
1.900000000000000E+009,-9.622355605691132E-001,4.298259577360773E-002,
1.905000000000000E+009,-9.623293176089132E-001,5.106039501966769E-002,
1.910000000000000E+009,-9.624895874629602E-001,5.930082842413803E-002,
1.915000000000000E+009,-9.629163956721191E-001,6.739391084622426E-002,
1.920000000000000E+009,-9.632082556041165E-001,7.651184364068064E-002,
1.925000000000000E+009,-9.627303567653209E-001,8.509448562750499E-002,
1.930000000000000E+009,-9.623629923047372E-001,9.384767403293345E-002,
1.935000000000000E+009,-9.616132882070718E-001,1.028706631752281E-001,
1.940000000000000E+009,-9.605770605034135E-001,1.118140648336355E-001,
1.945000000000000E+009,-9.594716592608450E-001,1.208098751163975E-001,
1.950000000000000E+009,-9.581374902642372E-001,1.299044571423610E-001,
1.955000000000000E+009,-9.570077800066378E-001,1.388676348272584E-001,
1.960000000000000E+009,-9.553975232571761E-001,1.481750845184571E-001,
1.965000000000000E+009,-9.536342174749847E-001,1.571358696993956E-001,
1.970000000000000E+009,-9.517833596106402E-001,1.658055627620506E-001,
1.975000000000000E+009,-9.497851907236559E-001,1.748595188770611E-001,
1.980000000000000E+009,-9.478181592323253E-001,1.840898630724971E-001,
1.985000000000000E+009,-9.454181208709984E-001,1.923833231531421E-001,
1.990000000000000E+009,-9.431968678599078E-001,2.006821907290366E-001,
1.995000000000000E+009,-9.405839722822618E-001,2.096106078078609E-001,
2.000000000000000E+009,-9.377916374992229E-001,2.181462749540728E-001,
2.005000000000000E+009,-9.348588542921673E-001,2.266095659913859E-001,
2.010000000000000E+009,-9.319443439014272E-001,2.344643140707457E-001,
2.015000000000000E+009,-9.295255819236525E-001,2.424025845947667E-001,
2.020000000000000E+009,-9.272168230406742E-001,2.505558050052002E-001,
2.025000000000000E+009,-9.248395879051199E-001,2.589175933658069E-001,
2.030000000000000E+009,-9.222027282643384E-001,2.671063170205074E-001,
2.035000000000000E+009,-9.201924083862269E-001,2.756683397688043E-001,
2.040000000000000E+009,-9.177219009923262E-001,2.845080863756567E-001,
2.045000000000000E+009,-9.153062876938931E-001,2.935367057338123E-001,
2.050000000000000E+009,-9.126445203386605E-001,3.029355714363510E-001,
2.055000000000000E+009,-9.096332991070655E-001,3.133196595311409E-001,
2.060000000000000E+009,-9.062065718099566E-001,3.233830646507170E-001,
2.065000000000000E+009,-9.028426853838677E-001,3.338968154976569E-001,
2.070000000000000E+009,-8.989825922082896E-001,3.444766692973154E-001,
2.075000000000000E+009,-8.945236429869912E-001,3.550503579613605E-001,
2.080000000000000E+009,-8.898520692093775E-001,3.653715194269218E-001,
2.085000000000000E+009,-8.843833081568429E-001,3.760505257123635E-001,
2.090000000000000E+009,-8.789412226169480E-001,3.865615137655803E-001,
2.095000000000000E+009,-8.735749821591172E-001,3.971072501546918E-001,
2.100000000000000E+009,-8.680685519726389E-001,4.069487901875032E-001,
2.105000000000000E+009,-8.619786684865813E-001,4.174888420000092E-001,
2.110000000000000E+009,-8.560027446315406E-001,4.280640780432296E-001,
2.115000000000000E+009,-8.491479917669274E-001,4.379999102580691E-001,
2.120000000000000E+009,-8.422930683514203E-001,4.483789270805736E-001,
2.125000000000000E+009,-8.348266980469731E-001,4.587579176446165E-001,
2.130000000000000E+009,-8.269782811474561E-001,4.685837500687039E-001,
2.135000000000000E+009,-8.183613708154399E-001,4.784998685893689E-001,
2.140000000000000E+009,-8.094545532455083E-001,4.882981650904128E-001,
2.145000000000000E+009,-8.000527623319798E-001,4.975664429552711E-001,
2.150000000000000E+009,-7.897702932290696E-001,5.065935769031695E-001,
2.155000000000000E+009,-7.790453679672150E-001,5.154774670346284E-001,
2.160000000000000E+009,-7.677213065785463E-001,5.236590379047339E-001,
2.165000000000000E+009,-7.556696402042252E-001,5.321872445126179E-001,
2.170000000000000E+009,-7.431673452206160E-001,5.407934701512320E-001,
2.175000000000000E+009,-7.294262445191933E-001,5.491919900610431E-001,
2.180000000000000E+009,-7.141603886050021E-001,5.578019304351826E-001,
2.185000000000000E+009,-6.975185707709518E-001,5.657624671796624E-001,
2.190000000000000E+009,-6.784366782388169E-001,5.737827231804124E-001,
2.195000000000000E+009,-6.565866956638899E-001,5.800573852887062E-001,
2.200000000000000E+009,-6.319344890028662E-001,5.839459852741328E-001,
2.205000000000000E+009,-6.042402429853573E-001,5.845336144595665E-001,
2.210000000000000E+009,-5.736113166008034E-001,5.804038971228855E-001,
2.215000000000000E+009,-5.407306800654516E-001,5.695092519906748E-001,
2.220000000000000E+009,-5.070803395625141E-001,5.499981005323832E-001,
2.225000000000000E+009,-4.759621697572112E-001,5.187007783001445E-001,
2.230000000000000E+009,-4.517803769894402E-001,4.756254884708578E-001,
2.235000000000000E+009,-4.421940751906665E-001,4.226140569241712E-001,
2.240000000000000E+009,-4.525808038305456E-001,3.664512959638788E-001,
2.245000000000000E+009,-4.834541877143588E-001,3.173506230414520E-001,
2.250000000000000E+009,-5.289438719145908E-001,2.853300703537439E-001,
2.255000000000000E+009,-5.783989084694317E-001,2.729574554139174E-001,
2.260000000000000E+009,-6.238214613769728E-001,2.766004285453081E-001,
2.265000000000000E+009,-6.614070865554144E-001,2.912924102748274E-001,
2.270000000000000E+009,-6.895538679025448E-001,3.122536362622435E-001,
2.275000000000000E+009,-7.090384168659534E-001,3.351759172824529E-001,
2.280000000000000E+009,-7.218092090461675E-001,3.580667571597919E-001,
2.285000000000000E+009,-7.295181399969684E-001,3.792445452370101E-001,
2.290000000000000E+009,-7.331448371469534E-001,3.985210260757627E-001,
2.295000000000000E+009,-7.341551028693656E-001,4.146002953325502E-001,
2.300000000000000E+009,-7.343654451613750E-001,4.273584050517467E-001,
2.305000000000000E+009,-7.361175094052527E-001,4.386948043098228E-001,
2.310000000000000E+009,-7.388634907651818E-001,4.493674004930317E-001,
2.315000000000000E+009,-7.428620498193386E-001,4.612539003015909E-001,
2.320000000000000E+009,-7.468324304532857E-001,4.750945055522493E-001,
2.325000000000000E+009,-7.491630676266522E-001,4.907880704851816E-001,
2.330000000000000E+009,-7.494184376771880E-001,5.075617527403984E-001,
2.335000000000000E+009,-7.476968343135008E-001,5.238022879696546E-001,
2.340000000000000E+009,-7.438338672489232E-001,5.394573928757446E-001,
2.345000000000000E+009,-7.392001015861660E-001,5.547041593065593E-001,
2.350000000000000E+009,-7.336405253337177E-001,5.683289799869705E-001,
2.355000000000000E+009,-7.273968503027112E-001,5.820641489596617E-001,
2.360000000000000E+009,-7.205845430467733E-001,5.934475830101974E-001,
2.365000000000000E+009,-7.134395662282032E-001,6.050450914591388E-001,
